Data from 3.0bar_Subt2__0__19-34-43-141.txt Node

Date: Thu Jan 06 19:34:43 CET 2022
User: fsatto
Spectrometer: OFX01956
Trigger mode: 0
Integration Time (sec): 1,000000E-3
Scans to average: 10
Nonlinearity correction enabled: false
Boxcar width: 0
Storing dark spectrum: false
XAxis mode: Wavelengths
Number of Pixels in Spectrum: 2136
>>>>>Begin Spectral Data<<<<<
158,236	2,1
158,705	2,7
159,174	-0,8
159,643	-3,4
160,112	-5,7
160,582	-2,7
161,051	1,5
161,52	6,9
161,988	-8,1
162,457	-6,4
162,926	-8,9
163,395	-3
163,864	0,6
164,332	-6,9
164,801	-6,8
165,269	-0,6
165,738	1,2
166,206	-1,4
166,675	1,1
167,143	-3,9
167,612	-12
168,08	-4,6
168,548	-10,9
169,016	3,6
169,484	-4,4
169,952	-1,2
170,42	-4,3
170,888	-10,6
171,356	-15,2
171,824	-6,7
172,292	-2
172,759	-0,2
173,227	1,3
173,695	-7,3
174,162	-4,4
174,63	5,6
175,097	-0,2
175,565	2,4
176,032	-3,5
176,499	-5,4
176,967	-1,8
177,434	-4,3
177,901	-1,2
178,368	2,9
178,835	-5
179,302	-7,1
179,769	-1,3
180,236	3,4
180,703	6,4
181,17	-0,7
181,637	-1,2
182,103	-6,1
182,57	-0,5
183,036	-9,5
183,503	-6,7
183,97	7,3
184,436	3,1
184,902	-5,8
185,369	6,1
185,835	10,3
186,301	5
186,767	-10,1
187,234	-0,4
187,7	-9,5
188,166	-2,6
188,632	1,1
189,098	-0,5
189,563	-2,2
190,029	-9,2
190,495	-4,8
190,961	-3,8
191,426	-8,5
191,892	2,7
192,358	1,2
192,823	9,6
193,289	2,8
193,754	3
194,219	-11,1
194,685	4,8
195,15	-5,9
195,615	-1,7
196,08	1,9
196,545	0,4
197,01	-2,3
197,475	-1,2
197,94	-6
198,405	0,1
198,87	-1,3
199,335	-2,1
199,8	-7,1
200,264	969,9
200,729	1017,6
201,193	1027,4
201,658	1051,8
202,122	1092,3
202,587	1138,8
203,051	1160,4
203,516	1196,3
203,98	1213,3
204,444	1303
204,908	1362
205,372	1427,6
205,836	1449,5
206,3	1499,9
206,764	1562,9
207,228	1627,7
207,692	1631,6
208,156	1794,3
208,62	1944,3
209,083	2097,3
209,547	2281,4
210,011	2463,6
210,474	2715,2
210,938	2988
211,401	3234,9
211,864	3531,8
212,328	3868,9
212,791	4240,8
213,254	4746,4
213,717	5180
214,181	5698,2
214,644	6147,3
215,107	6581,8
215,57	6691,1
216,033	7215,2
216,495	7976,6
216,958	8487,8
217,421	8672,7
217,884	9123,1
218,346	9331,2
218,809	9615,3
219,272	10458,1
219,734	11477,6
220,196	12048,4
220,659	12926,9
221,121	13286,1
221,584	12962,7
222,046	12523,4
222,508	12315,8
222,97	12666,7
223,432	13658,5
223,894	14814,1
224,356	15008
224,818	15326,8
225,28	16009,6
225,742	16975,4
226,204	18539,5
226,665	19064,2
227,127	19029,1
227,589	18349,5
228,05	19069,4
228,512	20100,3
228,973	20562,9
229,435	20579,9
229,896	20090,5
230,357	19515,3
230,818	18855,8
231,28	18968
231,741	19550,4
232,202	19276,8
232,663	18098,1
233,124	17045,6
233,585	16992,3
234,046	17416,4
234,507	17938
234,967	17589,8
235,428	16569,6
235,889	16160,4
236,349	16805,1
236,81	17889,5
237,271	18493,2
237,731	18863,6
238,191	18613,3
238,652	18071,7
239,112	17515,8
239,572	18490
240,033	19294,5
240,493	18556
240,953	16727,9
241,413	15041,2
241,873	14577,8
242,333	14308,4
242,793	14113,8
243,253	14675,4
243,712	15409,5
244,172	15643
244,632	15489
245,092	15539,9
245,551	16465,9
246,011	18691,9
246,47	20744,8
246,93	21432,6
247,389	22265,8
247,848	23970,5
248,308	26316,5
248,767	28714,2
249,226	29413,2
249,685	28445,6
250,144	27715
250,603	28177,4
251,062	29192,1
251,521	31360,2
251,98	33802,8
252,439	35056,2
252,897	35612
253,356	35234,7
253,815	34474,4
254,273	33897
254,732	34605,6
255,19	36014,7
255,649	35666,2
256,107	33318,6
256,566	31311
257,024	29931,1
257,482	29692,6
257,94	30816,1
258,398	33972
258,856	35056,8
259,315	33697,7
259,772	32819,3
260,23	33851,9
260,688	34824,8
261,146	35198
261,604	35907,8
262,062	36304,7
262,519	34710,4
262,977	32898,6
263,434	32510,5
263,892	33655,5
264,349	33086,9
264,807	31049,9
265,264	29593,9
265,721	28718,3
266,179	28581,9
266,636	27439,8
267,093	25477,5
267,55	24843,4
268,007	25453,7
268,464	25251,1
268,921	24917,7
269,378	25199,8
269,835	25458,4
270,291	25150,6
270,748	24386,1
271,205	24373,5
271,661	25054,7
272,118	25122,6
272,574	24399,8
273,031	23454,9
273,487	22253,5
273,944	21447
274,4	20416,3
274,856	20077,2
275,312	19751,4
275,768	18509,4
276,225	17276,2
276,681	16990,1
277,137	16618
277,593	16699
278,048	16688,4
278,504	16657,3
278,96	16225,3
279,416	15975,7
279,871	16030,5
280,327	16083
280,783	15786,1
281,238	15519,3
281,694	15669,3
282,149	15645,1
282,604	15277,2
283,06	14627,8
283,515	14563,8
283,97	14386,5
284,425	14284,2
284,88	14181,7
285,335	13861
285,79	13263
286,245	12591,8
286,7	12070,8
287,155	11681,4
287,61	11685,7
288,064	11315,1
288,519	11059,5
288,974	10657,7
289,428	10132,5
289,883	10021,3
290,337	10157,8
290,792	10211,7
291,246	10323,9
291,7	10440,4
292,155	10543,9
292,609	10613,5
293,063	10200,8
293,517	10196,7
293,971	10465,8
294,425	10444,7
294,879	10549
295,333	10649
295,787	9999,2
296,241	9573,5
296,694	9365
297,148	9086
297,602	8533,2
298,055	8405
298,509	8021,7
298,962	7611,7
299,416	6950,3
299,869	6330,5
300,322	5878,8
300,775	5659,1
301,229	5273,1
301,682	4708,5
302,135	4234,1
302,588	3782
303,041	3447,5
303,494	3247,1
303,947	2934,3
304,4	2854,5
304,852	2782,3
305,305	2697,9
305,758	2673,6
306,21	2635,2
306,663	2534,5
307,115	2529,6
307,568	2535,3
308,02	2489,5
308,473	2351,3
308,925	2217,4
309,377	2128,5
309,829	2053,5
310,282	2010,5
310,734	1949,9
311,186	1943,3
311,638	1906,1
312,09	1811,5
312,542	1755,4
312,993	1663,2
313,445	1583,6
313,897	1533,3
314,349	1495,5
314,8	1398
315,252	1291,5
315,703	1219,9
316,155	1163
316,606	1073,9
317,058	1010,2
317,509	946,4
317,96	871,5
318,411	808,9
318,863	750,5
319,314	705,1
319,765	688,5
320,216	658,3
320,667	643
321,117	600,3
321,568	552,2
322,019	526,9
322,47	491,4
322,921	470,6
323,371	453,6
323,822	427,9
324,272	410
324,723	397
325,173	376,6
325,623	353,6
326,074	318,8
326,524	326,4
326,974	302,5
327,424	268,9
327,874	253,2
328,325	240,6
328,775	267,3
329,224	426,8
329,674	425
330,124	276,2
330,574	254,1
331,024	225,2
331,473	216,7
331,923	193,2
332,373	173,3
332,822	158,4
333,272	143,2
333,721	135,6
334,17	116
334,62	115,2
335,069	99,2
335,518	97,3
335,967	91
336,416	87,2
336,865	81,7
337,314	71,7
337,763	67,3
338,212	76,1
338,661	60,3
339,11	54,9
339,558	52,6
340,007	55,1
340,456	46,1
340,904	39,3
341,353	36,1
341,801	40,5
342,25	43,6
342,698	42
343,146	43,1
343,595	38,8
344,043	27,7
344,491	23,1
344,939	24,9
345,387	32,3
345,835	21,5
346,283	32,8
346,731	31,2
347,179	29,4
347,626	16,7
348,074	28,7
348,522	28,3
348,969	28,1
349,417	23,8
349,865	21
350,312	20,2
350,759	18,9
351,207	22,6
351,654	20
352,101	21,4
352,548	24,4
352,996	20,4
353,443	8,1
353,89	12,5
354,337	25,2
354,784	17,3
355,231	17,5
355,677	15,6
356,124	7,5
356,571	13,8
357,018	19,2
357,464	12,9
357,911	2,9
358,357	9,4
358,804	10
359,25	1,6
359,696	8,9
360,143	4,4
360,589	11,1
361,035	12,7
361,481	10,5
361,927	14,9
362,373	13,8
362,819	11,4
363,265	13,3
363,711	17,1
364,157	15,5
364,603	5,7
365,048	0,9
365,494	12,9
365,94	0,5
366,385	8,7
366,831	3,4
367,276	7,4
367,722	9,4
368,167	7,4
368,612	4,8
369,057	12,9
369,503	3,7
369,948	3,4
370,393	8,8
370,838	8,3
371,283	14,9
371,728	13,3
372,173	6,6
372,617	5,9
373,062	1,2
373,507	10
373,951	8,1
374,396	11,5
374,841	9,8
375,285	8
375,729	15,9
376,174	15,6
376,618	11,2
377,062	5,5
377,507	4,9
377,951	10,3
378,395	2,5
378,839	9,8
379,283	6,5
379,727	9
380,171	6,4
380,615	3,6
381,059	3,8
381,502	10,4
381,946	9,4
382,39	19,6
382,833	3,9
383,277	2,6
383,72	6,1
384,164	11,8
384,607	2,1
385,05	6,3
385,494	7,8
385,937	11,8
386,38	3,5
386,823	11,2
387,266	4,8
387,709	4,4
388,152	6,8
388,595	9
389,038	3,8
389,481	7,6
389,923	5
390,366	5
390,809	3,7
391,251	2,8
391,694	-0,9
392,136	2,7
392,579	1,2
393,021	4,4
393,463	0
393,906	5,6
394,348	4,3
394,79	7,4
395,232	7,3
395,674	-1,8
396,116	2,7
396,558	14
397	12,1
397,442	12,4
397,884	10,2
398,325	14,2
398,767	-0,1
399,209	16,6
399,65	6,1
400,092	6,8
400,533	10,3
400,974	14,2
401,416	-5,4
401,857	2
402,298	5,5
402,74	4,8
403,181	-3,4
403,622	9
404,063	9,4
404,504	15,2
404,945	2,2
405,386	11,3
405,826	1,9
406,267	1
406,708	-4,2
407,149	3,9
407,589	5,9
408,03	3,1
408,47	1,9
408,911	0,5
409,351	7,1
409,791	2,8
410,232	17,2
410,672	-0,5
411,112	5
411,552	3,9
411,992	9,6
412,432	7,7
412,872	0,6
413,312	16,9
413,752	3,6
414,192	-4,1
414,632	-1
415,071	21
415,511	8,5
415,951	5,7
416,39	8,5
416,83	6
417,269	16,9
417,708	2,8
418,148	6
418,587	7,7
419,026	17,2
419,465	7
419,904	7,2
420,344	6,5
420,783	4,6
421,221	9,4
421,66	9,8
422,099	6,2
422,538	3,5
422,977	6,4
423,415	4
423,854	6
424,293	3
424,731	1,9
425,17	11,2
425,608	16,6
426,046	7
426,485	-4,1
426,923	5,6
427,361	0,5
427,799	1,6
428,237	12,3
428,675	0,7
429,113	9,7
429,551	14,3
429,989	-2,2
430,427	11,5
430,865	10,6
431,303	5,9
431,74	12,4
432,178	5
432,615	8,5
433,053	9
433,49	7
433,928	11,4
434,365	3
434,802	-4,2
435,24	-1,7
435,677	13,8
436,114	10,2
436,551	6
436,988	10,2
437,425	6,6
437,862	6
438,299	8,5
438,736	6,3
439,172	4,8
439,609	7,8
440,046	-5,7
440,482	1,4
440,919	3,2
441,355	5,9
441,792	3,1
442,228	-2,2
442,665	-1,9
443,101	-1,5
443,537	2,1
443,973	8,5
444,409	0,4
444,845	3,8
445,281	-2,7
445,717	3,6
446,153	0
446,589	-1
447,025	-4,9
447,461	7,1
447,896	8,1
448,332	3,7
448,768	-1,7
449,203	-0,3
449,639	10,3
450,074	-5,1
450,509	-2,4
450,945	-2,6
451,38	6,4
451,815	1,3
452,25	4
452,685	3,5
453,12	3,8
453,555	-1,2
453,99	3,5
454,425	13
454,86	-0,6
455,295	-4,4
455,73	8,8
456,164	-5,3
456,599	0,6
457,033	10,2
457,468	6,4
457,902	4,1
458,337	1,2
458,771	0,3
459,205	4,6
459,64	-2,1
460,074	0
460,508	13,5
460,942	4,6
461,376	7,7
461,81	4,7
462,244	9,8
462,678	-3,3
463,112	12,9
463,545	7,7
463,979	2,1
464,413	4,9
464,846	3,9
465,28	3,8
465,713	8,5
466,147	6
466,58	3,5
467,014	5,9
467,447	8,7
467,88	11,5
468,313	5,3
468,746	-0,9
469,179	8,6
469,612	6,2
470,045	10,7
470,478	4,1
470,911	14,7
471,344	-0,7
471,777	6,3
472,209	12,2
472,642	6,5
473,074	-1,3
473,507	3
473,939	12,4
474,372	0,1
474,804	5,7
475,236	8,9
475,669	22,2
476,101	5,9
476,533	4,9
476,965	-0,5
477,397	-0,4
477,829	7,4
478,261	14,7
478,693	4,8
479,125	0,8
479,557	8,2
479,988	2,7
480,42	-5,4
480,852	16,3
481,283	-4,3
481,715	1,9
482,146	3,2
482,577	3
483,009	10
483,44	15,2
483,871	-0,9
484,302	1,9
484,734	7,5
485,165	3,7
485,596	8,7
486,027	9,2
486,457	9,6
486,888	12,7
487,319	6
487,75	6,9
488,181	0,8
488,611	14,5
489,042	4,2
489,472	9,4
489,903	-1,7
490,333	-1,8
490,764	7,4
491,194	4,8
491,624	4,2
492,054	4,6
492,484	3,7
492,915	-1,4
493,345	-1
493,775	0,1
494,204	-0,9
494,634	-0,7
495,064	2,3
495,494	1,9
495,924	7,1
496,353	4,6
496,783	-1,3
497,212	-6,5
497,642	6,1
498,071	-2,8
498,501	4,2
498,93	2,4
499,359	0,5
499,789	4,4
500,218	5,5
500,647	-2,1
501,076	0,5
501,505	1,2
501,934	0,1
502,363	-0,2
502,792	2,9
503,221	8,7
503,649	6
504,078	2,9
504,507	5,6
504,935	3,3
505,364	-0,8
505,792	8,4
506,221	-7,6
506,649	4,7
507,077	-4
507,506	11,5
507,934	8,1
508,362	8,8
508,79	0,9
509,218	-1
509,646	3,4
510,074	-1,2
510,502	4,3
510,93	0,7
511,357	8,9
511,785	-6,5
512,213	-0,9
512,64	2,4
513,068	1,9
513,496	5,9
513,923	0,1
514,35	-0,9
514,778	1,6
515,205	-7,2
515,632	7,3
516,059	3,2
516,486	2,7
516,914	3,8
517,341	2,3
517,768	4,6
518,194	0,9
518,621	6
519,048	-3
519,475	-0,9
519,902	8,7
520,328	5,2
520,755	-3,4
521,181	6,7
521,608	1,1
522,034	4,2
522,461	4,2
522,887	-4,8
523,313	-3,3
523,739	-3,9
524,165	-9,5
524,592	3,4
525,018	2,2
525,444	7,3
525,869	-9,4
526,295	-3,4
526,721	-0,1
527,147	12,8
527,573	5,5
527,998	4,3
528,424	13,6
528,849	-12,3
529,275	3,7
529,7	3,5
530,126	-1,9
530,551	-0,4
530,976	-0,7
531,402	4,4
531,827	1,2
532,252	1,7
532,677	10,2
533,102	-1,2
533,527	7,5
533,952	7
534,377	-1,1
534,801	2,8
535,226	8
535,651	9,4
536,076	-5,2
536,5	2,7
536,925	-1,1
537,349	1,2
537,773	9,2
538,198	-7,6
538,622	-1,4
539,046	4,3
539,471	-5,8
539,895	10,6
540,319	-4,7
540,743	1,8
541,167	-1,6
541,591	-6,3
542,015	-0,8
542,438	2,1
542,862	-5,7
543,286	7,7
543,71	3,6
544,133	3,8
544,557	-0,8
544,98	4,6
545,404	-5,3
545,827	1,6
546,25	2,7
546,674	-1,5
547,097	12,9
547,52	6,1
547,943	7,3
548,366	4,4
548,789	-5,6
549,212	0,4
549,635	1,7
550,058	3,2
550,481	-6,5
550,903	-1,2
551,326	-4,9
551,749	2
552,171	5,5
552,594	2,6
553,016	4,7
553,438	9,6
553,861	1,4
554,283	6,9
554,705	-1,7
555,128	5,8
555,55	4,7
555,972	1,8
556,394	11,5
556,816	4,6
557,238	9,9
557,659	3,9
558,081	5,5
558,503	-3,6
558,925	-0,4
559,346	4,2
559,768	-4
560,189	11,2
560,611	4,3
561,032	-0,4
561,454	3,3
561,875	2,6
562,296	7,3
562,718	5,9
563,139	5,7
563,56	-2,2
563,981	-3,5
564,402	3
564,823	-2,9
565,244	-1,4
565,664	-3,4
566,085	-6,4
566,506	3,5
566,927	-4,9
567,347	3,3
567,768	-1,6
568,188	-1,3
568,609	-2,1
569,029	1,2
569,449	-4,6
569,87	-4,3
570,29	-2,6
570,71	0,5
571,13	0,3
571,55	-3,1
571,97	-5,5
572,39	-6,4
572,81	-0,4
573,23	-4
573,65	-8
574,069	-1,2
574,489	0,3
574,909	-6,5
575,328	1,9
575,748	2,8
576,167	-4,2
576,587	-5
577,006	3,4
577,425	-2,5
577,844	-5,6
578,264	-1,8
578,683	-1,3
579,102	3,9
579,521	-0,3
579,94	-0,9
580,359	4,7
580,778	-1,5
581,196	-3,4
581,615	-10,8
582,034	5,4
582,452	0,4
582,871	-3,5
583,29	-3,4
583,708	-1
584,126	5,5
584,545	4,9
584,963	3
585,381	2,1
585,8	5
586,218	-0,3
586,636	3
587,054	-3,8
587,472	-8,4
587,89	0,1
588,308	-1,4
588,725	0,4
589,143	-1,9
589,561	-1,3
589,979	-0,8
590,396	-9,3
590,814	-5
591,231	-6
591,649	-8,7
592,066	-3
592,483	-9,9
592,901	5,7
593,318	5,1
593,735	-1,1
594,152	3,5
594,569	-0,5
594,986	3,8
595,403	0,3
595,82	0,8
596,237	5,5
596,654	-7,5
597,07	3
597,487	4,3
597,904	-8
598,32	-3,9
598,737	0,5
599,153	3,7
599,57	14,6
599,986	0,5
600,402	-1,6
600,818	0,7
601,235	3,5
601,651	1,1
602,067	4,7
602,483	-0,5
602,899	3
603,315	-1,1
603,73	7,1
604,146	4,5
604,562	4,1
604,978	2
605,393	3,3
605,809	0,9
606,224	-0,8
606,64	-0,2
607,055	-10,6
607,471	-3,6
607,886	-9,2
608,301	-2,7
608,716	3,4
609,131	-6,1
609,547	-1,5
609,962	-1,5
610,377	3,4
610,791	-1,8
611,206	6,9
611,621	-12
612,036	-6,3
612,451	-10
612,865	-3,9
613,28	-0,6
613,694	-6,4
614,109	-0,7
614,523	-1,6
614,938	5,5
615,352	-0,5
615,766	2,2
616,18	3,8
616,595	9,4
617,009	-6,9
617,423	7,2
617,837	3,8
618,251	2,1
618,664	2,5
619,078	3,4
619,492	10,3
619,906	9,5
620,319	3,3
620,733	11
621,146	15,8
621,56	9,1
621,973	7,3
622,387	7,7
622,8	3,8
623,213	10
623,627	14,7
624,04	10,3
624,453	16,2
624,866	13
625,279	6,2
625,692	3,8
626,105	23,7
626,518	23,2
626,93	17,5
627,343	15
627,756	15,8
628,168	12,8
628,581	23,3
628,993	26,9
629,406	11,9
629,818	27,7
630,231	34
630,643	26,1
631,055	16,6
631,467	32,7
631,879	32,1
632,291	38,8
632,703	42,7
633,115	49,2
633,527	59,3
633,939	52,9
634,351	58
634,763	56,7
635,174	63,5
635,586	74,8
635,997	67
636,409	72,1
636,82	81,3
637,232	84,6
637,643	84
638,054	85,3
638,466	96,9
638,877	86,1
639,288	93,4
639,699	96,8
640,11	84,9
640,521	90,8
640,932	93,9
641,343	101,9
641,753	103,3
642,164	104,1
642,575	109,4
642,986	101,5
643,396	107,4
643,807	99,9
644,217	112,1
644,627	104
645,038	114,6
645,448	106,6
645,858	100,1
646,269	98,9
646,679	99
647,089	87,8
647,499	91,2
647,909	92,9
648,319	97,8
648,728	87,6
649,138	86,5
649,548	84
649,958	81
650,367	77,7
650,777	59,4
651,186	74,3
651,596	67
652,005	59,2
652,415	65,1
652,824	60,6
653,233	62,4
653,642	58
654,052	56,5
654,461	51,8
654,87	57,4
655,279	52,4
655,688	41
656,096	53,2
656,505	48,6
656,914	51,2
657,323	49,1
657,731	52,7
658,14	52,9
658,548	39,1
658,957	41,7
659,365	48,6
659,774	39,2
660,182	49,2
660,59	49,4
660,998	42,8
661,407	37
661,815	36,8
662,223	42,4
662,631	35,5
663,039	42,2
663,446	29,8
663,854	32,1
664,262	32,8
664,67	41,2
665,077	28,3
665,485	36,9
665,892	27,6
666,3	23,8
666,707	28,9
667,115	31
667,522	27,6
667,929	18,6
668,337	24,3
668,744	20,6
669,151	22,7
669,558	18,3
669,965	23,6
670,372	11
670,779	15
671,185	14,8
671,592	14,3
671,999	12,6
672,405	12,3
672,812	10,7
673,219	5,2
673,625	-7,6
674,032	-3,8
674,438	4,6
674,844	8,4
675,25	2,5
675,657	4,7
676,063	5,4
676,469	11,5
676,875	2,6
677,281	3,8
677,687	-1
678,093	2,1
678,499	6,1
678,904	-3,3
679,31	3,3
679,716	2,8
680,121	8,1
680,527	-6,4
680,932	11,5
681,338	2,5
681,743	4,8
682,148	-0,3
682,554	9
682,959	5,8
683,364	-1,1
683,769	6,3
684,174	1,7
684,579	-11,1
684,984	-8,4
685,389	2,4
685,794	-1,6
686,199	-13,3
686,603	4,5
687,008	-3,1
687,413	-8,1
687,817	-9,7
688,222	0,8
688,626	-14,1
689,03	-8,4
689,435	-0,7
689,839	3,1
690,243	2,3
690,647	-5,9
691,051	-8,1
691,456	-9,6
691,859	-6,6
692,263	-5,7
692,667	-9,1
693,071	-1,8
693,475	5,3
693,879	-7,1
694,282	-6,5
694,686	5,5
695,089	2,3
695,493	-4,2
695,896	-5,6
696,3	-5
696,703	-0,5
697,106	-1,2
697,509	-1,7
697,913	-3,3
698,316	5,5
698,719	8,6
699,122	2
699,525	0,6
699,928	-5,9
700,33	1,8
700,733	-3,5
701,136	-6,4
701,539	-8,8
701,941	-3,5
702,344	0
702,746	2,8
703,149	-3,7
703,551	-5,4
703,953	5,5
704,356	-10,8
704,758	-2,5
705,16	-1,7
705,562	1,6
705,964	-6,6
706,366	1,7
706,768	-9
707,17	-3,8
707,572	-2,5
707,973	3,9
708,375	2,6
708,777	0,8
709,178	-3
709,58	0
709,981	-1,1
710,383	-4,2
710,784	3,1
711,186	-8,8
711,587	1,7
711,988	-0,3
712,389	6,6
712,79	-2,5
713,191	-1
713,592	-7,7
713,993	-9,1
714,394	-1,7
714,795	2,5
715,196	6,6
715,596	5,5
715,997	-2
716,398	3,4
716,798	-3,5
717,199	-1,9
717,599	5,2
718	-3,9
718,4	-0,3
718,8	7,3
719,2	-6,3
719,6	3,1
720,001	1,7
720,401	-9,1
720,801	0,5
721,201	-6,3
721,6	-0,5
722	5,7
722,4	-2,4
722,8	-7,2
723,199	-0,4
723,599	-3
723,998	-9,1
724,398	5,8
724,797	-5,6
725,197	2,1
725,596	12,7
725,995	1,7
726,394	-2,5
726,794	5,8
727,193	-14
727,592	-9,5
727,991	-0,6
728,39	-0,1
728,789	3,4
729,187	-7,9
729,586	6,8
729,985	8,3
730,383	0,9
730,782	-11,6
731,181	-8,6
731,579	4,9
731,977	-10,8
732,376	-7,7
732,774	-1,5
733,172	-7,3
733,571	4,3
733,969	10
734,367	-0,8
734,765	3,8
735,163	8,6
735,561	2,2
735,959	6,6
736,356	-7,3
736,754	6,7
737,152	6,3
737,55	4,8
737,947	2,9
738,345	6,4
738,742	13
739,14	10,9
739,537	10,6
739,934	9,4
740,331	18,9
740,729	8,1
741,126	4,5
741,523	19,7
741,92	9,3
742,317	6
742,714	10,7
743,111	5,3
743,507	18,4
743,904	14,3
744,301	11,6
744,697	12,2
745,094	0,6
745,491	1,7
745,887	11,1
746,283	11,6
746,68	14,8
747,076	7,5
747,472	14,3
747,869	20,4
748,265	17,8
748,661	16,3
749,057	7,8
749,453	7,6
749,849	26
750,244	12,6
750,64	14
751,036	11,9
751,432	15
751,827	22,1
752,223	28,3
752,618	20,5
753,014	12,5
753,409	18,9
753,805	21,9
754,2	15,9
754,595	15,8
754,99	14,8
755,385	20,6
755,78	6
756,175	14,8
756,57	13,5
756,965	23,3
757,36	32
757,755	29,1
758,15	34,3
758,544	27,6
758,939	43,7
759,334	52,7
759,728	51,5
760,122	53,4
760,517	64
760,911	61,2
761,306	61,9
761,7	53,8
762,094	63,9
762,488	44,7
762,882	46,9
763,276	46,4
763,67	38
764,064	41,8
764,458	40,3
764,852	48,1
765,245	55,5
765,639	46,7
766,033	58,1
766,426	71,9
766,82	70,2
767,213	67,3
767,606	77,6
768	69,2
768,393	56,6
768,786	69,6
769,179	66,5
769,572	57,5
769,966	52
770,358	53,2
770,751	50,7
771,144	60,8
771,537	53,7
771,93	47,7
772,323	54,3
772,715	46,5
773,108	41,6
773,5	36,3
773,893	37,7
774,285	29,5
774,678	13,6
775,07	17,3
775,462	33,1
775,854	10,8
776,247	16,1
776,639	3,1
777,031	6,7
777,423	8,8
777,815	11,9
778,207	15,6
778,598	12,1
778,99	9,6
779,382	14
779,773	22,1
780,165	15,6
780,557	28,8
780,948	28,5
781,339	30,1
781,731	45,1
782,122	35,3
782,513	42,6
782,905	45,4
783,296	39,9
783,687	36,9
784,078	31,1
784,469	34,1
784,86	39,2
785,251	38
785,641	36,7
786,032	33,1
786,423	29,5
786,813	32,7
787,204	40,3
787,594	25
787,985	31,9
788,375	33
788,766	25,3
789,156	19
789,546	22,6
789,936	24,8
790,326	12,9
790,717	18,8
791,107	11,3
791,497	15,8
791,886	14,2
792,276	14,1
792,666	15
793,056	11,2
793,445	13,6
793,835	18,9
794,225	9,1
794,614	15,8
795,004	18,5
795,393	9,6
795,782	7,9
796,172	9,6
796,561	10,6
796,95	12,1
797,339	17,9
797,728	8,3
798,117	14,5
798,506	21,6
798,895	18,6
799,284	11,2
799,673	15,7
800,061	11,5
800,45	11,2
800,839	22,3
801,227	7,9
801,616	11,8
802,004	9,7
802,392	5,1
802,781	10,1
803,169	2,4
803,557	2,2
803,945	-5,7
804,333	-0,1
804,721	0,4
805,109	1,2
805,497	-1,3
805,885	-0,2
806,273	-2,2
806,661	4,8
807,048	-6,4
807,436	8,6
807,824	-1,6
808,211	2,4
808,599	0,5
808,986	-4,7
809,373	5,7
809,761	-8,4
810,148	-2,3
810,535	-1,5
810,922	-4
811,309	-11
811,696	-4,6
812,083	-0,3
812,47	0,7
812,857	-1,8
813,244	-8,5
813,631	18,5
814,017	-10,3
814,404	-9,8
814,791	0,9
815,177	2,6
815,564	-1,4
815,95	1,1
816,336	3,1
816,723	-3
817,109	-4,9
817,495	-0,8
817,881	-1,1
818,267	-10,3
818,653	-2,9
819,039	-3
819,425	-4,7
819,811	-6,8
820,197	-11,9
820,582	1
820,968	5,1
821,354	2,4
821,739	-1
822,125	-10,2
822,51	1,3
822,895	-7,1
823,281	-2,2
823,666	-4,6
824,051	-9,9
824,436	-4,8
824,822	-5,6
825,207	1,4
825,592	-5,5
825,976	-9,7
826,361	-6,1
826,746	-3,7
827,131	-4,8
827,516	5,6
827,9	1
828,285	-7,7
828,669	0,2
829,054	-6,3
829,438	-5
829,823	2,1
830,207	-10,3
830,591	-11,1
830,975	3,8
831,36	-2,8
831,744	14
832,128	-8
832,512	-1,2
832,895	-0,8
833,279	-0,8
833,663	-1,1
834,047	-4,4
834,431	-5,7
834,814	-11,2
835,198	-7,1
835,581	3,8
835,965	-7,2
836,348	-5,2
836,731	7,6
837,115	-1,8
837,498	-4,5
837,881	-10,5
838,264	0,4
838,647	-2,3
839,03	-9,7
839,413	-3,4
839,796	2,9
840,179	3
840,562	-7,1
840,944	-1,4
841,327	-3,1
841,71	-2,3
842,092	5,4
842,475	0,5
842,857	2,8
843,24	5,4
843,622	0,3
844,004	-2,2
844,386	-3,6
844,769	-0,8
845,151	0,4
845,533	-0,4
845,915	7,5
846,297	1,7
846,678	-7,2
847,06	1,3
847,442	-1,2
847,824	-0,9
848,205	-9,8
848,587	-13,4
848,968	1,7
849,35	5,6
849,731	-4,1
850,113	-3,3
850,494	-7,1
850,875	5,2
851,256	-8,5
851,638	-3,4
852,019	2,2
852,4	-10,2
852,781	-2,7
853,161	-4
853,542	-1,5
853,923	-4,1
854,304	-0,4
854,685	3,5
855,065	-3,4
855,446	-7
855,826	-8,4
856,207	13,5
856,587	0,9
856,967	-0,7
857,348	-3,2
857,728	0,2
858,108	-7,3
858,488	-1,7
858,868	-1,9
859,248	5,5
859,628	-2
860,008	-6,4
860,388	0,9
860,768	-0,3
861,147	-0,8
861,527	-5,5
861,907	8,8
862,286	-3,8
862,666	-0,3
863,045	-9,2
863,424	-6,6
863,804	4,5
864,183	-4,3
864,562	3,1
864,941	5,3
865,32	-2
865,699	-10,6
866,078	-13,9
866,457	5,6
866,836	-1,9
867,215	-3,4
867,594	0,3
867,972	-3,9
868,351	-0,8
868,729	0,7
869,108	2,4
869,486	-6,9
869,865	6,9
870,243	-1,7
870,621	-3,8
871	3
871,378	-3,8
871,756	-4,2
872,134	-4,8
872,512	-3,8
872,89	-14,9
873,268	-3,7
873,646	5,3
874,023	0,3
874,401	-1,3
874,779	-1,2
875,156	1,5
875,534	-4,8
875,911	5,5
876,289	-0,4
876,666	-3,9
877,043	-13,2
877,421	-6,8
877,798	-8,4
878,175	7,1
878,552	1,5
878,929	1,3
879,306	-11,1
879,683	-10
880,06	-1,3
880,437	-2,6
880,813	-6,8
881,19	-0,8
881,567	-5,3
881,943	-10
882,32	1,9
882,696	-6,2
883,073	-11,7
883,449	-7,1
883,825	-11,5
884,202	-14,1
884,578	-9,1
884,954	-5,1
885,33	-0,7
885,706	-2,1
886,082	-4,6
886,458	-11,3
886,834	-0,9
887,209	-3,6
887,585	5,2
887,961	-6,7
888,336	7,6
888,712	-12,9
889,087	-0,9
889,463	-7,2
889,838	-0,9
890,213	-6,9
890,589	3
890,964	-7
891,339	-5,6
891,714	1,5
892,089	-3,9
892,464	1,9
892,839	-5,1
893,214	-0,9
893,589	5,8
893,963	-2,2
894,338	0,6
894,713	-0,8
895,087	8,7
895,462	2,7
895,836	-4,8
896,211	-4
896,585	0,7
896,959	-15,8
897,334	4,4
897,708	1,2
898,082	-0,1
898,456	-5,1
898,83	8,2
899,204	-3,7
899,578	8
899,952	9,4
900,325	0
900,699	3,5
901,073	8,5
901,446	0,8
901,82	4,6
902,193	11,8
902,567	9
902,94	6,9
903,313	2
903,687	7,7
904,06	12,7
904,433	1,6
904,806	2,8
905,179	10,9
905,552	3,3
905,925	14,8
906,298	7,3
906,671	4,2
907,043	4,6
907,416	3,7
907,789	13,6
908,161	12,4
908,534	9,8
908,906	-0,4
909,279	3
909,651	2,6
910,023	9,8
910,396	3,5
910,768	4,8
911,14	2
911,512	17,3
911,884	13,1
912,256	13
912,628	7,6
912,999	10,7
913,371	12
913,743	15,2
914,115	5,4
914,486	11,1
914,858	12,9
915,229	13,8
915,601	18,3
915,972	20,6
916,343	10,6
916,715	13,5
917,086	11,6
917,457	14,8
917,828	12,4
918,199	21,7
918,57	10,9
918,941	9,9
919,312	17,8
919,682	3,3
920,053	15
920,424	19,8
920,794	9,4
921,165	0,3
921,536	17,5
921,906	14
922,276	7,2
922,647	3,9
923,017	11,1
923,387	14,2
923,757	5,8
924,127	3,9
924,497	16,9
924,867	2,4
925,237	11,4
925,607	7,4
925,977	7,7
926,347	9,1
926,716	10,2
927,086	12,4
927,456	7,2
927,825	6,9
928,195	8,5
928,564	16,4
928,933	12,4
929,303	5,3
929,672	6,1
930,041	4,6
930,41	1,4
930,779	12,1
931,148	15,4
931,517	15,7
931,886	11,7
932,255	14,4
932,624	19,8
932,993	9,3
933,361	12,7
933,73	12,3
934,098	17,3
934,467	19,2
934,835	14,6
935,204	13
935,572	7,4
935,94	17,9
936,308	15
936,677	15,2
937,045	23,9
937,413	19,8
937,781	22
938,149	15,4
938,516	10
938,884	18,2
939,252	23
939,62	13,7
939,987	8,2
940,355	26,8
940,722	28,5
941,09	5,3
941,457	11,4
941,825	15,9
942,192	18,8
942,559	17
942,926	17,2
943,293	7,3
943,66	15,9
944,027	15,7
944,394	18
944,761	6,7
945,128	12
945,495	10,5
945,861	8,9
946,228	2,2
946,595	2
946,961	16,4
947,328	5,7
947,694	10,9
948,06	10,9
948,427	9,6
948,793	11,4
949,159	9,9
949,525	9,6
949,891	5,5
950,257	6,8
950,623	11,9
950,989	-0,7
951,355	4,6
951,721	11,1
952,087	13
952,452	14,7
952,818	8,6
953,183	2,6
953,549	6,1
953,914	10,6
954,28	0,8
954,645	9,3
955,01	7,5
955,375	0,5
955,741	0,7
956,106	-1,6
956,471	9,8
956,836	1,1
957,201	14,4
957,566	0,3
957,93	1,8
958,295	5,5
958,66	5,9
959,024	6,9
959,389	9,9
959,753	12,6
960,118	-3,1
960,482	10,7
960,847	10,3
961,211	6,9
961,575	4
961,939	1,7
962,303	4,4
962,667	0,3
963,031	-10,9
963,395	-5,1
963,759	-3,4
964,123	-1,3
964,487	-2,9
964,851	5,5
965,214	-1,3
965,578	-3
965,941	-1,2
966,305	-1,2
966,668	-1,6
967,032	-8,1
967,395	-1,7
967,758	0
968,121	8,6
968,484	-2,1
968,847	-0,2
969,21	-0,9
969,573	5,8
969,936	-0,9
970,299	0,2
970,662	-1,9
971,025	3
971,387	-6,8
971,75	6
972,112	2,5
972,475	4,7
972,837	12,8
973,2	0,8
973,562	3,2
973,924	1,6
974,286	7,2
974,649	4,6
975,011	10,3
975,373	-7,1
975,735	2,2
976,097	1,4
976,458	-0,3
976,82	0,6
977,182	2,7
977,544	-6,6
977,905	-2,7
978,267	2,2
978,628	2,4
978,99	4,6
979,351	5
979,712	7,7
980,074	-6,9
980,435	0
980,796	0,5
981,157	2,1
981,518	0,2
981,879	-3,2
982,24	8
982,601	9,8
982,962	0,8
983,323	-5,4
983,683	-0,2
984,044	3
984,404	-6,6
984,765	2,3
985,125	-3,9
985,486	10
985,846	-3,2
986,206	0,9
986,567	11,8
986,927	0,1
987,287	-3
987,647	9,6
988,007	0,7
988,367	0,7
988,727	-1,7
989,087	-2,6
989,446	-4,2
989,806	-7,4
990,166	-4,4
990,525	0,6
990,885	-1,6
991,244	-4,2
991,604	-1,1
991,963	3,4
992,322	-4,7
992,682	5
993,041	-2,5
993,4	1,5
993,759	-0,3
994,118	-4,5
994,477	1,3
994,836	-1,3
995,195	-4,9
995,553	7,7
995,912	-9,3
996,271	-0,3
996,629	-3,5
996,988	-3,1
997,346	-1,2
997,705	7,8
998,063	-0,8
998,422	-2,4
998,78	-6,8
999,138	-3,4
999,496	-10
999,854	-12,3
1000,212	-1,2
1000,57	-1,8
1000,928	-8,2
1001,286	-2
1001,644	-3,3
1002,001	2
1002,359	0,4
1002,717	-3,5
1003,074	-8,2
1003,432	-4,3
1003,789	-4,8
1004,147	-2,4
1004,504	-4,9
1004,861	-10,7
1005,218	-9
1005,576	1,2
1005,933	0,4
1006,29	-3,9
1006,647	0,3
1007,004	-7,3
1007,36	-3,9
1007,717	-8,4
1008,074	-1,2
1008,431	1,7
1008,787	-2,3
1009,144	-5,9
1009,5	3,2
1009,857	1,6
1010,213	2,1
1010,569	0,5
1010,926	-4,7
1011,282	-10,4
1011,638	-1
1011,994	11,5
1012,35	-13
1012,706	-4,8
1013,062	-4,9
1013,418	-3,2
1013,774	-6,9
1014,13	-9,8
1014,485	2,1
1014,841	-9,5
1015,197	-2,1
1015,552	3,1
1015,907	-3
1016,263	0,1
1016,618	5,7
1016,974	4,5
1017,329	-5
1017,684	-1,2
1018,039	6,1
1018,394	-8,7
1018,749	-0,8
1019,104	-8,2
1019,459	3,6
1019,814	-3,7
1020,168	-4,8
1020,523	-1,3
1020,878	2,9
1021,232	-2,9
1021,587	5,5
1021,941	-12,7
1022,296	-0,9
1022,65	1
1023,004	-3,3
1023,359	-1
1023,713	-6,1
1024,067	-7,5
1024,421	1,3
1024,775	1,2
1025,129	-0,3
1025,483	-13,2
1025,837	4
1026,19	-1,2
1026,544	-8,9
1026,898	-1,5
1027,251	-3,4
1027,605	1,8
1027,958	-8,7
1028,312	-3,9
1028,665	-0,7
1029,018	0,4
1029,372	-0,7
1029,725	5
1030,078	1,4
1030,431	1,2
1030,784	-3,9
1031,137	2,6
1031,49	-4,5
1031,843	3
1032,195	1
1032,548	-3
1032,901	0,4
1033,253	-3,4
1033,606	-17,8
1033,958	-4,4
1034,311	-11,3
1034,663	5,1
1035,016	-5,1
1035,368	-8,6
1035,72	-5,2
1036,072	-0,5
1036,424	0
1036,776	-0,5
1037,128	2,6
1037,48	-1,4
