Data from 1.0bar_Subt2__0__19-32-36-628.txt Node

Date: Thu Jan 06 19:32:36 CET 2022
User: fsatto
Spectrometer: OFX01956
Trigger mode: 0
Integration Time (sec): 1,000000E-3
Scans to average: 10
Nonlinearity correction enabled: false
Boxcar width: 0
Storing dark spectrum: false
XAxis mode: Wavelengths
Number of Pixels in Spectrum: 2136
>>>>>Begin Spectral Data<<<<<
158,236	-11,7
158,705	-2,8
159,174	-9,3
159,643	-0,9
160,112	-14,2
160,582	-9,7
161,051	-8,1
161,52	-0,3
161,988	-11
162,457	-6,4
162,926	-17,4
163,395	-6,3
163,864	-6,9
164,332	-2,9
164,801	-8,2
165,269	-9,3
165,738	-7,2
166,206	-9,4
166,675	-4,5
167,143	-11,2
167,612	-10
168,08	-15,8
168,548	-10,4
169,016	-6,8
169,484	-5,7
169,952	-6,5
170,42	-8,8
170,888	-15,7
171,356	-13,5
171,824	-6,9
172,292	-9,4
172,759	-1,5
173,227	-9,4
173,695	-8,1
174,162	-4,5
174,63	-7,3
175,097	-2,9
175,565	-9,8
176,032	-11,6
176,499	-10,8
176,967	-6,5
177,434	-2
177,901	-10,5
178,368	-9,4
178,835	-10,3
179,302	-10,9
179,769	-5,3
180,236	-6,8
180,703	-2,1
181,17	-9,6
181,637	-12,9
182,103	-8,9
182,57	-8,6
183,036	-6,3
183,503	-5,2
183,97	-1,3
184,436	-5,5
184,902	-9,9
185,369	-4,1
185,835	-3,7
186,301	-2,9
186,767	-2,5
187,234	-11,5
187,7	-7,6
188,166	-9
188,632	-7,7
189,098	-10,3
189,563	-11,9
190,029	-14,1
190,495	-8,4
190,961	-8,2
191,426	-9,2
191,892	3,7
192,358	-3,9
192,823	-2,8
193,289	-6
193,754	-2,7
194,219	-9,5
194,685	1,2
195,15	-12,2
195,615	-9,5
196,08	-10,6
196,545	-9,9
197,01	-14,8
197,475	-10,5
197,94	-18
198,405	-8,6
198,87	-10,3
199,335	-8,2
199,8	-12,3
200,264	410,6
200,729	440,4
201,193	443,3
201,658	455,8
202,122	471,1
202,587	482,2
203,051	498,9
203,516	498,2
203,98	510,2
204,444	536,5
204,908	539
205,372	583,7
205,836	564,9
206,3	583,2
206,764	604,6
207,228	641,7
207,692	636,9
208,156	652
208,62	724,3
209,083	759,6
209,547	831,3
210,011	894,8
210,474	989,4
210,938	1076,6
211,401	1189,1
211,864	1289,8
212,328	1393
212,791	1523,7
213,254	1718,2
213,717	1882,1
214,181	2133,8
214,644	2322,7
215,107	2461,5
215,57	2545,4
216,033	2692,2
216,495	3058,1
216,958	3296,5
217,421	3399,9
217,884	3618,6
218,346	3770,6
218,809	3910
219,272	4279,7
219,734	4685,1
220,196	4815,9
220,659	5172,5
221,121	5407,7
221,584	5453,4
222,046	5373,4
222,508	5354,7
222,97	5479,8
223,432	5800,7
223,894	6314,7
224,356	6695,7
224,818	7007,9
225,28	7338,7
225,742	7754,2
226,204	8507,7
226,665	9008,6
227,127	9061,2
227,589	8792,3
228,05	9084
228,512	9470,5
228,973	9739,1
229,435	10020,6
229,896	10264,2
230,357	10332,6
230,818	10158,4
231,28	10265,2
231,741	10463
232,202	10398,4
232,663	10022,2
233,124	9616,1
233,585	9758,4
234,046	10119,3
234,507	10457,3
234,967	10326,5
235,428	9717,4
235,889	9387,9
236,349	9637,1
236,81	9998,2
237,271	10264,4
237,731	10323,4
238,191	9936,1
238,652	9343,1
239,112	9065,7
239,572	9564,4
240,033	10080,4
240,493	9791,8
240,953	9010
241,413	8326,2
241,873	8151,7
242,333	8080,9
242,793	7823,8
243,253	7849,5
243,712	8058,3
244,172	8144,5
244,632	8355,4
245,092	8578,5
245,551	8966,4
246,011	9429,9
246,47	9628,3
246,93	9554,8
247,389	10003,1
247,848	11151,3
248,308	12508,6
248,767	13408,1
249,226	13471,2
249,685	12388,8
250,144	12069,3
250,603	12692,5
251,062	13708,3
251,521	14056,6
251,98	14614,2
252,439	14671
252,897	14520,3
253,356	15255,9
253,815	15850,8
254,273	15857,6
254,732	15793,5
255,19	15519,2
255,649	14908,9
256,107	14043,7
256,566	13872,1
257,024	13786,4
257,482	13367,9
257,94	13015,7
258,398	13110,5
258,856	13360,5
259,315	13217,2
259,772	13385,7
260,23	14180,2
260,688	14260,8
261,146	14028,3
261,604	13927,5
262,062	14087,9
262,519	13829,2
262,977	13136,3
263,434	13061,4
263,892	13074,7
264,349	12567,8
264,807	11731,7
265,264	10985,5
265,721	10776,3
266,179	10721,7
266,636	10151,8
267,093	9179,8
267,55	8717,5
268,007	8626,9
268,464	8474,4
268,921	8304,2
269,378	8321,8
269,835	8202,7
270,291	7885,7
270,748	7518,3
271,205	7544,3
271,661	7833,6
272,118	7769,2
272,574	7578,7
273,031	7232,3
273,487	6789,9
273,944	6381,6
274,4	6100,8
274,856	6061,6
275,312	5935,5
275,768	5410
276,225	4965,6
276,681	4817,7
277,137	4670,7
277,593	4586,8
278,048	4612,1
278,504	4451,8
278,96	4294,4
279,416	4077,9
279,871	4055,5
280,327	3916,2
280,783	3804,4
281,238	3739,5
281,694	3709,1
282,149	3647,2
282,604	3592
283,06	3472,8
283,515	3354,5
283,97	3274
284,425	3300,1
284,88	3296,5
285,335	3259,6
285,79	3124,7
286,245	2896,9
286,7	2738,8
287,155	2663,6
287,61	2638,9
288,064	2593,6
288,519	2518,4
288,974	2384,2
289,428	2217,1
289,883	2150,3
290,337	2117,4
290,792	2050
291,246	2017,3
291,7	1959,9
292,155	1905,4
292,609	1856,1
293,063	1741,2
293,517	1695,1
293,971	1691,3
294,425	1621,4
294,879	1587,2
295,333	1556,1
295,787	1459,5
296,241	1365,9
296,694	1265,7
297,148	1243,1
297,602	1164,3
298,055	1083,6
298,509	1018,3
298,962	950
299,416	884,4
299,869	776,5
300,322	711,3
300,775	638,3
301,229	616,1
301,682	541,4
302,135	454,8
302,588	407,3
303,041	370,2
303,494	328,8
303,947	293,4
304,4	272
304,852	259,2
305,305	243,2
305,758	222,1
306,21	235,2
306,663	213,4
307,115	219,5
307,568	197,1
308,02	187,7
308,473	187,3
308,925	171,5
309,377	158,2
309,829	145,1
310,282	157,2
310,734	144,6
311,186	147,1
311,638	136,7
312,09	127,5
312,542	133,7
312,993	119,5
313,445	112,5
313,897	112,3
314,349	89,9
314,8	99,1
315,252	90
315,703	77,7
316,155	77,7
316,606	84,3
317,058	72,7
317,509	55,7
317,96	63
318,411	55,8
318,863	44,8
319,314	53,9
319,765	55,2
320,216	38,7
320,667	44,9
321,117	37,7
321,568	34,8
322,019	33,8
322,47	33,9
322,921	23,3
323,371	21,8
323,822	15,2
324,272	28,6
324,723	19,3
325,173	11,3
325,623	22,6
326,074	10,1
326,524	24,2
326,974	16,5
327,424	12
327,874	12,5
328,325	10,5
328,775	12,8
329,224	24,4
329,674	17
330,124	13,4
330,574	15,8
331,024	10,5
331,473	13,9
331,923	7,6
332,373	3,2
332,822	9,8
333,272	4,8
333,721	9,4
334,17	5
334,62	-6
335,069	3,4
335,518	8,2
335,967	4
336,416	4,5
336,865	10,9
337,314	-0,1
337,763	0,1
338,212	8,5
338,661	7,4
339,11	0,4
339,558	-2,9
340,007	7,6
340,456	-7,8
340,904	-8
341,353	0,8
341,801	6,8
342,25	0,9
342,698	4,9
343,146	3,4
343,595	-1,9
344,043	3,5
344,491	-10,5
344,939	-2,6
345,387	0,4
345,835	-10,2
346,283	0,4
346,731	-0,1
347,179	-0,4
347,626	1,9
348,074	1
348,522	1,3
348,969	2,5
349,417	-2,6
349,865	-1,5
350,312	3,3
350,759	-0,2
351,207	-2,5
351,654	6,1
352,101	1,3
352,548	9,5
352,996	-7,6
353,443	-5,1
353,89	-3,2
354,337	16,5
354,784	-6,4
355,231	-3,9
355,677	-7,3
356,124	-4,9
356,571	-12,2
357,018	3,7
357,464	-3,4
357,911	-16,6
358,357	-7,5
358,804	-8,3
359,25	-6,1
359,696	-5
360,143	-13,2
360,589	-3,3
361,035	2,5
361,481	-15,8
361,927	5,3
362,373	-0,2
362,819	-7,4
363,265	0,1
363,711	-0,4
364,157	-4,4
364,603	-4,1
365,048	-8,5
365,494	-1,1
365,94	-6,3
366,385	-10,9
366,831	-5
367,276	0,4
367,722	-5,4
368,167	0,9
368,612	-8
369,057	-7,2
369,503	-11,9
369,948	-12,1
370,393	-7,2
370,838	0,9
371,283	-6,1
371,728	0,1
372,173	-0,2
372,617	-9,8
373,062	-13,2
373,507	-4,2
373,951	0
374,396	-1,3
374,841	-14,7
375,285	-3,3
375,729	-1,6
376,174	-4,6
376,618	4,4
377,062	-3,5
377,507	-3,5
377,951	1,4
378,395	7,1
378,839	-3,9
379,283	-5,5
379,727	-0,3
380,171	-6,9
380,615	-2,6
381,059	-4,2
381,502	-7,9
381,946	3
382,39	7,3
382,833	-6,2
383,277	-3,8
383,72	-4,7
384,164	8
384,607	-9,8
385,05	-3,6
385,494	2,5
385,937	1,6
386,38	-5,4
386,823	-5,5
387,266	-3,4
387,709	-4,1
388,152	-0,5
388,595	1,6
389,038	0,1
389,481	-6,4
389,923	2,5
390,366	-14,1
390,809	-4,6
391,251	-1
391,694	-15,9
392,136	-7,3
392,579	-4,8
393,021	-7,8
393,463	-3,2
393,906	1,7
394,348	0,6
394,79	-4,4
395,232	-4,8
395,674	-11,3
396,116	-6,5
396,558	-5,1
397	-7,8
397,442	0,9
397,884	-5,1
398,325	-1,6
398,767	-11,6
399,209	6,5
399,65	0,7
400,092	-3,5
400,533	-5,5
400,974	-1,3
401,416	-7,4
401,857	-10,1
402,298	-3,2
402,74	-4,8
403,181	-7,6
403,622	-11,3
404,063	-0,3
404,504	4,3
404,945	-10,6
405,386	-2,6
405,826	-15,2
406,267	-4,8
406,708	-2,5
407,149	0,9
407,589	-5,2
408,03	1,6
408,47	-7,7
408,911	-11,5
409,351	-1,6
409,791	-9,1
410,232	2,2
410,672	-10,3
411,112	-4,2
411,552	-11,5
411,992	-4,5
412,432	1,2
412,872	-4,8
413,312	1,7
413,752	-6,6
414,192	-7,1
414,632	-6,7
415,071	3,9
415,511	0,2
415,951	-3,1
416,39	4,7
416,83	-9,5
417,269	1,7
417,708	-3,4
418,148	-2,6
418,587	-0,9
419,026	-6,4
419,465	-0,1
419,904	-1,8
420,344	-0,4
420,783	-15
421,221	-3,1
421,66	4,3
422,099	-7,8
422,538	2,6
422,977	-5,1
423,415	-5,3
423,854	-9
424,293	-14
424,731	3,4
425,17	-0,7
425,608	-0,9
426,046	-6,6
426,485	-11,4
426,923	-3,5
427,361	-8,9
427,799	-14
428,237	-1,3
428,675	-10
429,113	-2,9
429,551	-8,6
429,989	-9,1
430,427	-5,5
430,865	-6,5
431,303	-10,9
431,74	-11,9
432,178	-4,3
432,615	-6,3
433,053	5,9
433,49	-3,3
433,928	-2,4
434,365	-5,6
434,802	-7,8
435,24	-2,8
435,677	-0,9
436,114	-4,8
436,551	-0,6
436,988	-8,4
437,425	1,2
437,862	-9,3
438,299	-0,9
438,736	-1,5
439,172	-6,8
439,609	-0,5
440,046	-11,7
440,482	-4,6
440,919	-7,4
441,355	-4,3
441,792	-5,1
442,228	-4,8
442,665	-12,9
443,101	-2
443,537	-6,8
443,973	-5,2
444,409	-3,1
444,845	-5,9
445,281	-9
445,717	-9,5
446,153	-2,1
446,589	-11,3
447,025	-4,9
447,461	-3,6
447,896	7,4
448,332	-5
448,768	-3,4
449,203	-11,7
449,639	-7,5
450,074	-15,7
450,509	-9,7
450,945	-6,8
451,38	-8,9
451,815	3,1
452,25	-7,4
452,685	2,4
453,12	-7,7
453,555	-0,2
453,99	-11
454,425	-5,3
454,86	-4,9
455,295	-17,5
455,73	-4,3
456,164	-12,9
456,599	-10,8
457,033	-7,2
457,468	-5,4
457,902	-4,5
458,337	-9,5
458,771	-15,2
459,205	-2,3
459,64	-9,6
460,074	-9,9
460,508	0,7
460,942	-10,4
461,376	-4,6
461,81	4,3
462,244	0,3
462,678	-2,8
463,112	-2
463,545	5,6
463,979	3,7
464,413	0,7
464,846	-2,9
465,28	-1,3
465,713	2,8
466,147	-0,7
466,58	-8,9
467,014	-4,6
467,447	3
467,88	4,4
468,313	4,5
468,746	-11,4
469,179	-0,6
469,612	-4,5
470,045	-1,1
470,478	2,2
470,911	-7,4
471,344	-5,7
471,777	-5,2
472,209	2,7
472,642	-4,6
473,074	-5,6
473,507	-4
473,939	-3,9
474,372	-8,1
474,804	-3,7
475,236	-9
475,669	10
476,101	0,9
476,533	-2,6
476,965	-2,5
477,397	-8,6
477,829	-2,4
478,261	-1,3
478,693	-5,9
479,125	-8,2
479,557	-5,4
479,988	-9,9
480,42	-11,7
480,852	-8,4
481,283	-7,6
481,715	-4,4
482,146	0,8
482,577	1,5
483,009	-4,4
483,44	-1,2
483,871	-9,8
484,302	-1,7
484,734	-4,5
485,165	-12,8
485,596	0
486,027	-5,7
486,457	-3,3
486,888	9,2
487,319	-11,5
487,75	-5
488,181	-4,8
488,611	-5,1
489,042	0,2
489,472	-5,1
489,903	-7,3
490,333	-7,2
490,764	-7,2
491,194	-3,1
491,624	-10,2
492,054	0,2
492,484	-4
492,915	-1,6
493,345	-8,1
493,775	-6,4
494,204	-7,7
494,634	-1,2
495,064	-13,2
495,494	-3,4
495,924	14
496,353	0,5
496,783	-3,9
497,212	-4,4
497,642	-10,7
498,071	-9,2
498,501	-5,9
498,93	-5,2
499,359	-9,4
499,789	-7,5
500,218	0,4
500,647	-5,8
501,076	-2,9
501,505	-8
501,934	-11,3
502,363	-7
502,792	-8,1
503,221	-3,6
503,649	-1,8
504,078	0,9
504,507	-5,9
504,935	5,3
505,364	-8,1
505,792	-5,5
506,221	-11,7
506,649	0,4
507,077	-9,8
507,506	-2,3
507,934	-10,7
508,362	8,1
508,79	-13,2
509,218	-11
509,646	-6,3
510,074	-9,4
510,502	-3,8
510,93	-7,1
511,357	-1,8
511,785	-17,8
512,213	-9,9
512,64	-6,9
513,068	-13,3
513,496	-1,4
513,923	-9,5
514,35	-8
514,778	-6,8
515,205	-11,1
515,632	-1,6
516,059	-9,3
516,486	-0,3
516,914	-2,9
517,341	-5,6
517,768	1,3
518,194	-5,5
518,621	-0,3
519,048	-6,4
519,475	-5,1
519,902	-6,8
520,328	-9,3
520,755	-6,9
521,181	-1,8
521,608	-0,6
522,034	-3,1
522,461	0,5
522,887	-16,3
523,313	-10,8
523,739	-11,6
524,165	-6
524,592	-15,8
525,018	-12,9
525,444	-4,2
525,869	-8,3
526,295	-11
526,721	-9,5
527,147	0,3
527,573	-9,8
527,998	-9,5
528,424	-2,9
528,849	-23,3
529,275	1,4
529,7	-2,8
530,126	-9,6
530,551	-3,9
530,976	-4
531,402	-5,8
531,827	-5,9
532,252	-10,3
532,677	-9,3
533,102	-13
533,527	-7,1
533,952	7
534,377	-8,3
534,801	-2
535,226	-7,8
535,651	0,4
536,076	-5,3
536,5	-5,1
536,925	-0,8
537,349	-4,4
537,773	-0,1
538,198	-8,8
538,622	0,8
539,046	-0,6
539,471	-6,8
539,895	-7,8
540,319	-6,1
540,743	-5,3
541,167	-1,6
541,591	-10,7
542,015	-7,8
542,438	-3,8
542,862	-9,8
543,286	-1,7
543,71	-10,1
544,133	-1,7
544,557	1
544,98	-17,5
545,404	-2,9
545,827	0,9
546,25	-10,1
546,674	-5,8
547,097	3
547,52	0,7
547,943	1,2
548,366	1,6
548,789	-16,7
549,212	-6
549,635	-9,9
550,058	-10
550,481	-10,8
550,903	-10,3
551,326	-13,8
551,749	2,9
552,171	-7,7
552,594	0,9
553,016	-9,7
553,438	8
553,861	2,3
554,283	-2,2
554,705	-3,7
555,128	-7,2
555,55	7,6
555,972	-11,5
556,394	5,6
556,816	-3,6
557,238	3,8
557,659	-6,9
558,081	-0,4
558,503	1,4
558,925	0,7
559,346	2,9
559,768	-2,5
560,189	4
560,611	0,4
561,032	-3,6
561,454	-9
561,875	-2,8
562,296	-6,7
562,718	0,9
563,139	-2,5
563,56	-4,8
563,981	-7,7
564,402	-3,9
564,823	-9,1
565,244	-13,8
565,664	-4
566,085	-7,4
566,506	-7,4
566,927	-13,2
567,347	-2
567,768	-15,6
568,188	-4,6
568,609	-2,4
569,029	-4,3
569,449	-4,9
569,87	-5,3
570,29	-7,2
570,71	-4,7
571,13	-5,3
571,55	-13
571,97	-10,3
572,39	5,2
572,81	-11,5
573,23	-3,5
573,65	-4,1
574,069	-17
574,489	-8,6
574,909	-15,3
575,328	-10,5
575,748	-4,4
576,167	-1,6
576,587	-9,8
577,006	12,3
577,425	0,4
577,844	-5
578,264	-8,9
578,683	-5,7
579,102	-3,6
579,521	-10,3
579,94	-4,4
580,359	1,6
580,778	-5,3
581,196	-12
581,615	-15,7
582,034	-5,2
582,452	-12,7
582,871	-7,3
583,29	-11,5
583,708	-8,8
584,126	-4
584,545	-4,4
584,963	-2,9
585,381	-4,8
585,8	-4,8
586,218	-13,1
586,636	-4,7
587,054	-11,8
587,472	-13,1
587,89	-11,9
588,308	-6,7
588,725	-9,3
589,143	-7,7
589,561	-10,3
589,979	-6,4
590,396	-3
590,814	-7
591,231	-9,5
591,649	-12,6
592,066	-1,8
592,483	-14
592,901	-0,5
593,318	-4,7
593,735	-5,6
594,152	-5,3
594,569	-2,6
594,986	-8,3
595,403	-6,5
595,82	-4,7
596,237	-7,2
596,654	-6,4
597,07	2,5
597,487	-9
597,904	-12
598,32	-14,4
598,737	-4,6
599,153	-10,6
599,57	-8,6
599,986	-7,1
600,402	-10,5
600,818	3,1
601,235	-7,2
601,651	-2,9
602,067	-2,2
602,483	-14,2
602,899	-7,7
603,315	-7,1
603,73	-0,2
604,146	-9,7
604,562	0,3
604,978	-6,2
605,393	-3,2
605,809	-7,6
606,224	-6,8
606,64	-12,5
607,055	-16
607,471	-3,3
607,886	-12,1
608,301	-11,4
608,716	-5,2
609,131	-17,2
609,547	-0,4
609,962	0,8
610,377	-4,4
610,791	-4,7
611,206	-2,6
611,621	-9,3
612,036	-8,1
612,451	-15,4
612,865	-11
613,28	-8,1
613,694	-8,8
614,109	-6,6
614,523	-4,3
614,938	-3,2
615,352	-4,6
615,766	-4,2
616,18	0,1
616,595	-0,1
617,009	-11,7
617,423	0,1
617,837	-4,4
618,251	-7,1
618,664	2,3
619,078	-0,4
619,492	5,3
619,906	2,2
620,319	6,6
620,733	9,4
621,146	8,3
621,56	10,7
621,973	7,2
622,387	11,2
622,8	-3,4
623,213	7,4
623,627	9,6
624,04	8
624,453	7,6
624,866	7,7
625,279	9,3
625,692	-1,2
626,105	18,6
626,518	20,1
626,93	18,2
627,343	13,9
627,756	20,4
628,168	18,3
628,581	13,2
628,993	22,4
629,406	16,9
629,818	18,2
630,231	29
630,643	31,9
631,055	27,3
631,467	32,7
631,879	35,8
632,291	32,4
632,703	33,7
633,115	50,2
633,527	57,6
633,939	56,9
634,351	54,3
634,763	60,6
635,174	56,4
635,586	61
635,997	67,4
636,409	72,2
636,82	79,8
637,232	81,6
637,643	78,5
638,054	73,8
638,466	83,8
638,877	77,7
639,288	90,1
639,699	89,1
640,11	97,3
640,521	85,7
640,932	96,1
641,343	107,3
641,753	101,3
642,164	99
642,575	117,6
642,986	104,6
643,396	111,6
643,807	101,7
644,217	108,1
644,627	101,2
645,038	98,8
645,448	101,2
645,858	98
646,269	110,4
646,679	95,6
647,089	93,4
647,499	99
647,909	90
648,319	91,8
648,728	91,8
649,138	82,8
649,548	84,4
649,958	81,1
650,367	76,5
650,777	73,6
651,186	77,7
651,596	67,8
652,005	51,9
652,415	72,5
652,824	56,5
653,233	68,8
653,642	64
654,052	65,9
654,461	57,2
654,87	66,2
655,279	57,5
655,688	54,2
656,096	53,9
656,505	49,4
656,914	49,4
657,323	50
657,731	50,6
658,14	53,3
658,548	39,9
658,957	46
659,365	48,5
659,774	40,9
660,182	52,6
660,59	42,6
660,998	36,7
661,407	36,3
661,815	33
662,223	32,1
662,631	29,3
663,039	35,3
663,446	28,5
663,854	30
664,262	18
664,67	36,6
665,077	17,8
665,485	28,8
665,892	18,2
666,3	27,3
666,707	15,2
667,115	17,2
667,522	23,8
667,929	13,5
668,337	20,1
668,744	15,9
669,151	14,9
669,558	13,3
669,965	26,5
670,372	10
670,779	5,4
671,185	5,2
671,592	11,6
671,999	-1
672,405	4,7
672,812	-1,6
673,219	3
673,625	-8,8
674,032	-8
674,438	-9,4
674,844	2,8
675,25	1,2
675,657	4,6
676,063	6,3
676,469	3,6
676,875	-0,7
677,281	1,4
677,687	-9,3
678,093	-3,9
678,499	-10,4
678,904	-8,9
679,31	-6
679,716	-11,2
680,121	-3,3
680,527	-11,5
680,932	1,8
681,338	-2,2
681,743	-8,8
682,148	1,2
682,554	3,4
682,959	-4,7
683,364	0,5
683,769	-3,7
684,174	-9,4
684,579	-20,2
684,984	-18,5
685,389	-8,7
685,794	-9,3
686,199	-9,9
686,603	-4,8
687,008	-12,1
687,413	-11,7
687,817	-3,2
688,222	-4,3
688,626	-16,2
689,03	-9,7
689,435	-10,6
689,839	-3,7
690,243	-7,9
690,647	-9
691,051	-12,3
691,456	-16,5
691,859	-15,1
692,263	-11,4
692,667	-8,3
693,071	-1,7
693,475	-5
693,879	-9,9
694,282	-15,8
694,686	-2,1
695,089	0,3
695,493	-8,9
695,896	-12,7
696,3	-11,1
696,703	-0,9
697,106	-19,7
697,509	-3
697,913	-13,8
698,316	-11,4
698,719	-6,4
699,122	-6,2
699,525	-5,4
699,928	-5,3
700,33	-11,5
700,733	-12,8
701,136	-12,5
701,539	-9,6
701,941	-7,9
702,344	-7,7
702,746	4,2
703,149	-13,4
703,551	-11,1
703,953	-0,9
704,356	-8,9
704,758	-12,5
705,16	-9,2
705,562	-7,1
705,964	-16
706,366	-6,1
706,768	-10,8
707,17	-11,6
707,572	-9,4
707,973	-6,5
708,375	-6,3
708,777	-13,6
709,178	-8,1
709,58	-5,6
709,981	-9,2
710,383	-4,9
710,784	-6,4
711,186	-9,4
711,587	-12,5
711,988	-16,5
712,389	-4,4
712,79	-10,3
713,191	-7,3
713,592	-14,5
713,993	-17,4
714,394	-5,8
714,795	-8,5
715,196	1
715,596	-0,9
715,997	-15,6
716,398	-6,2
716,798	-3
717,199	-12,8
717,599	-2,4
718	-11,5
718,4	-9,6
718,8	-2
719,2	-4
719,6	-7,6
720,001	-5,3
720,401	-10,7
720,801	-0,7
721,201	-5,3
721,6	0
722	-7,9
722,4	-6,3
722,8	-14,7
723,199	-1
723,599	-6,4
723,998	-11,2
724,398	-22,2
724,797	-15,4
725,197	-8,5
725,596	0,5
725,995	-11,9
726,394	-8
726,794	-3
727,193	-13,4
727,592	-10,7
727,991	-7,4
728,39	-6
728,789	-9
729,187	-13
729,586	-2,6
729,985	0,4
730,383	-11,1
730,782	-8,2
731,181	-17,1
731,579	-4,6
731,977	-23,2
732,376	-9,9
732,774	-9,3
733,172	-9,8
733,571	-0,1
733,969	-1,5
734,367	-10,7
734,765	4,7
735,163	-1,7
735,561	-0,9
735,959	-4,6
736,356	-8,5
736,754	2,4
737,152	-4,2
737,55	-0,3
737,947	-1,1
738,345	-3
738,742	10
739,14	3,5
739,537	2,6
739,934	-1,3
740,331	5
740,729	3,4
741,126	3,5
741,523	12,6
741,92	7,7
742,317	-3,3
742,714	7,6
743,111	-3,5
743,507	14
743,904	5,6
744,301	11,5
744,697	3
745,094	1,5
745,491	-2,2
745,887	20,1
746,283	10,2
746,68	5,7
747,076	3,7
747,472	17,1
747,869	16,5
748,265	6,5
748,661	15,5
749,057	4,2
749,453	11,6
749,849	19,7
750,244	12
750,64	10,9
751,036	4,6
751,432	15,8
751,827	5,2
752,223	-1,2
752,618	14,5
753,014	9,4
753,409	0,4
753,805	14,8
754,2	15,7
754,595	14,9
754,99	9
755,385	20,9
755,78	3
756,175	5,6
756,57	9
756,965	25,5
757,36	28,5
757,755	28,4
758,15	23
758,544	16
758,939	31,2
759,334	43,7
759,728	42
760,122	41,5
760,517	57,3
760,911	52,5
761,306	48,2
761,7	39,8
762,094	48,9
762,488	29,3
762,882	28,6
763,276	30,3
763,67	18,5
764,064	27,3
764,458	31,3
764,852	35,8
765,245	34,9
765,639	33,4
766,033	32,9
766,426	54,1
766,82	60,6
767,213	60,3
767,606	61
768	47,7
768,393	49,5
768,786	49,5
769,179	53,1
769,572	54,8
769,966	43,9
770,358	41,3
770,751	37,5
771,144	49
771,537	46,6
771,93	45,6
772,323	43,2
772,715	38,7
773,108	34,9
773,5	36,7
773,893	29
774,285	29,4
774,678	20,4
775,07	19,4
775,462	28
775,854	6,2
776,247	8,5
776,639	13,8
777,031	2
777,423	7,5
777,815	16,1
778,207	-1,7
778,598	6,5
778,99	8,7
779,382	10,6
779,773	12,2
780,165	21,7
780,557	30,2
780,948	30,1
781,339	39,9
781,731	38,1
782,122	44,9
782,513	43,1
782,905	46,8
783,296	45,4
783,687	39,8
784,078	45,3
784,469	35
784,86	34,2
785,251	26,9
785,641	39,5
786,032	34,8
786,423	25,8
786,813	26,7
787,204	41,2
787,594	30,3
787,985	22,5
788,375	24
788,766	15,8
789,156	14,6
789,546	16,2
789,936	15,2
790,326	1,9
790,717	11,1
791,107	3,7
791,497	5,6
791,886	1,5
792,276	4,2
792,666	3,3
793,056	7,4
793,445	12
793,835	13,6
794,225	17
794,614	4,3
795,004	0
795,393	6,2
795,782	2,8
796,172	11,1
796,561	8
796,95	1,3
797,339	9,6
797,728	12,4
798,117	1,2
798,506	15,7
798,895	3,7
799,284	0,6
799,673	1,8
800,061	9,2
800,45	2,9
800,839	5,2
801,227	2,1
801,616	4,9
802,004	1,7
802,392	-9,5
802,781	0,4
803,169	3,1
803,557	-0,6
803,945	-9,6
804,333	1,3
804,721	1,2
805,109	-6,4
805,497	-9,7
805,885	1,8
806,273	-1,8
806,661	-7,5
807,048	-6,7
807,436	1,7
807,824	-5,5
808,211	-2,8
808,599	-13,2
808,986	-7,7
809,373	1,8
809,761	-4,7
810,148	-2,6
810,535	4,4
810,922	-7,9
811,309	-16,1
811,696	-6,3
812,083	-9,4
812,47	-2,1
812,857	0,7
813,244	-2,9
813,631	-0,9
814,017	-12
814,404	-13,3
814,791	3,6
815,177	2,1
815,564	-10,3
815,95	-10,3
816,336	-8,2
816,723	0,4
817,109	-4,5
817,495	0,1
817,881	-8,7
818,267	-9,9
818,653	-8,6
819,039	-8,5
819,425	-9,5
819,811	-7,6
820,197	-18,7
820,582	-3,6
820,968	-4,5
821,354	-5,9
821,739	0,9
822,125	-14,1
822,51	-10,3
822,895	-14,4
823,281	-2,4
823,666	-14,9
824,051	-11,9
824,436	-15
824,822	-16,2
825,207	-15,2
825,592	-18
825,976	-15,2
826,361	-9,8
826,746	-5,9
827,131	-7,8
827,516	-6
827,9	0,1
828,285	-4,1
828,669	-1
829,054	-4,3
829,438	-2
829,823	-6,6
830,207	-8,7
830,591	-13,6
830,975	-7,4
831,36	-14,8
831,744	-11,1
832,128	-14,3
832,512	-9,9
832,895	-5,5
833,279	-11
833,663	-10,2
834,047	-13,3
834,431	-12,8
834,814	-12,4
835,198	-10,9
835,581	-5,5
835,965	-13,9
836,348	-3,4
836,731	5,5
837,115	-4,1
837,498	-18,3
837,881	-13,8
838,264	-14,5
838,647	-12,7
839,03	-7,6
839,413	-18,3
839,796	-10,3
840,179	-7,6
840,562	-7,2
840,944	-1,2
841,327	-10,3
841,71	-2,6
842,092	-8,9
842,475	-9,4
842,857	-10,7
843,24	-6,4
843,622	-9,4
844,004	-8,1
844,386	-4,3
844,769	-3,3
845,151	-4,4
845,533	-12,3
845,915	0,3
846,297	-8
846,678	-12,4
847,06	-8,7
847,442	-1,6
847,824	-17,5
848,205	-11,6
848,587	-15,1
848,968	-5,7
849,35	-1,7
849,731	-5,5
850,113	-3,4
850,494	-8,4
850,875	-3,5
851,256	-15
851,638	-15,2
852,019	-8,2
852,4	-10,1
852,781	-9
853,161	-12,4
853,542	-7,7
853,923	-10,1
854,304	-5,1
854,685	1,9
855,065	-8,4
855,446	-6
855,826	-12,2
856,207	-4,7
856,587	-9,2
856,967	-8,8
857,348	-7,1
857,728	-3,6
858,108	-2
858,488	-10,9
858,868	-2,1
859,248	0,4
859,628	-0,9
860,008	-9,8
860,388	-3,4
860,768	-7,5
861,147	-15,8
861,527	-12,4
861,907	-2,6
862,286	-12,4
862,666	-1,9
863,045	-18,9
863,424	-14,9
863,804	-7,7
864,183	4
864,562	-4,7
864,941	-1,5
865,32	1,4
865,699	-6,7
866,078	-9,9
866,457	3,8
866,836	0,2
867,215	-6,1
867,594	-1,3
867,972	-14,8
868,351	-1,8
868,729	-1,1
869,108	-2,2
869,486	-10,2
869,865	-3,5
870,243	-7,1
870,621	-11,8
871	-3,5
871,378	-8
871,756	-0,7
872,134	-0,3
872,512	-6,9
872,89	-7,8
873,268	-11,9
873,646	-4,1
874,023	-0,6
874,401	-12,9
874,779	-2,7
875,156	3
875,534	-6,4
875,911	-3,2
876,289	-6,2
876,666	-9
877,043	-8,8
877,421	-7,1
877,798	-12,7
878,175	-1,9
878,552	-5,2
878,929	-5,6
879,306	-14,2
879,683	-13
880,06	-7,6
880,437	-9,8
880,813	-5,3
881,19	-7,7
881,567	-13,7
881,943	-12
882,32	-9,2
882,696	-5
883,073	-21,5
883,449	-5,8
883,825	-16,2
884,202	-8,1
884,578	-15,6
884,954	-13,6
885,33	-5,9
885,706	-9,6
886,082	-3,7
886,458	-10,5
886,834	-10,1
887,209	-12,2
887,585	-1,3
887,961	-8
888,336	0,9
888,712	-11,1
889,087	-4
889,463	-8,5
889,838	-2,4
890,213	-8,2
890,589	-4,4
890,964	-10,3
891,339	-10,3
891,714	-11,9
892,089	-1,4
892,464	-8,9
892,839	-12,4
893,214	-7,3
893,589	-10,2
893,963	-15,1
894,338	-12,3
894,713	-7,2
895,087	3
895,462	-8,7
895,836	-6,6
896,211	3,9
896,585	-5,3
896,959	-16,4
897,334	2,1
897,708	-5,6
898,082	-14,5
898,456	-13
898,83	-1,7
899,204	3,7
899,578	8,7
899,952	-5,6
900,325	3,8
900,699	-6,4
901,073	2,6
901,446	-16,3
901,82	10,5
902,193	3,4
902,567	0
902,94	-3
903,313	-1,7
903,687	3,5
904,06	4,7
904,433	4,7
904,806	-1,1
905,179	7
905,552	-5,6
905,925	0,6
906,298	-0,5
906,671	1,5
907,043	0
907,416	-4,2
907,789	-3
908,161	4,8
908,534	6,5
908,906	-4,3
909,279	0,5
909,651	4
910,023	0,7
910,396	0,2
910,768	-4,1
911,14	10,8
911,512	8,5
911,884	7,1
912,256	3,5
912,628	3,4
912,999	3
913,371	3,1
913,743	5,3
914,115	-4
914,486	-8,1
914,858	14,9
915,229	2,6
915,601	5,4
915,972	8,9
916,343	8,9
916,715	11,9
917,086	4,3
917,457	3,9
917,828	10,2
918,199	9,3
918,57	10,6
918,941	8,2
919,312	7,7
919,682	2,6
920,053	9,4
920,424	17,1
920,794	0,7
921,165	-2,6
921,536	1,5
921,906	1,4
922,276	1,2
922,647	1,9
923,017	5,5
923,387	5,9
923,757	3,4
924,127	2,5
924,497	9,9
924,867	3,9
925,237	6,4
925,607	11,1
925,977	0,5
926,347	12,4
926,716	5,9
927,086	5,3
927,456	-1,8
927,825	-5,3
928,195	7,7
928,564	12,8
928,933	8,1
929,303	3,4
929,672	2,1
930,041	-3,3
930,41	0,1
930,779	6,4
931,148	15,9
931,517	9,9
931,886	3,6
932,255	11,7
932,624	10,9
932,993	11,4
933,361	7,2
933,73	4,4
934,098	7,4
934,467	22,1
934,835	16,7
935,204	10,4
935,572	3,5
935,94	7,7
936,308	8
936,677	6,7
937,045	16,2
937,413	16,4
937,781	15,5
938,149	17,9
938,516	11,8
938,884	6,3
939,252	13,1
939,62	12,8
939,987	3,7
940,355	13,9
940,722	9,5
941,09	2,3
941,457	5,5
941,825	7,3
942,192	14,3
942,559	12,9
942,926	8,1
943,293	5,4
943,66	15,1
944,027	10
944,394	9,9
944,761	4,3
945,128	15
945,495	4,5
945,861	11,9
946,228	3,4
946,595	1,6
946,961	6,9
947,328	1,2
947,694	5,8
948,06	-10,8
948,427	3,7
948,793	6,6
949,159	-3,4
949,525	2,8
949,891	-5,2
950,257	2,2
950,623	-0,2
950,989	-4,4
951,355	8,9
951,721	-1,3
952,087	8,2
952,452	10,1
952,818	2,2
953,183	-1,9
953,549	2,5
953,914	5,9
954,28	0,3
954,645	3,7
955,01	-6,9
955,375	-1,1
955,741	1,3
956,106	-3,9
956,471	-2,6
956,836	-9,5
957,201	-1,1
957,566	-0,8
957,93	-8,1
958,295	4,6
958,66	0,4
959,024	4,3
959,389	1,7
959,753	4
960,118	-3,9
960,482	-6,3
960,847	1,3
961,211	-3
961,575	-10,9
961,939	-2,2
962,303	5,5
962,667	-5,1
963,031	-10,1
963,395	-2,5
963,759	-7,6
964,123	-3,9
964,487	-7,4
964,851	1,2
965,214	6,8
965,578	-2,9
965,941	-2,6
966,305	-2,8
966,668	-8,1
967,032	-12,4
967,395	-0,1
967,758	0
968,121	-7,6
968,484	-0,6
968,847	-10,2
969,21	-3,9
969,573	-3,3
969,936	-0,1
970,299	-0,8
970,662	-3,2
971,025	5,7
971,387	-6,9
971,75	-2,7
972,112	-8,5
972,475	-6,2
972,837	-3
973,2	2,6
973,562	4,2
973,924	-2,3
974,286	-4,3
974,649	-2,6
975,011	6,4
975,373	-13,4
975,735	-6,1
976,097	-1,3
976,458	-7,4
976,82	-5,8
977,182	-7,6
977,544	-14,6
977,905	-3,3
978,267	-1,4
978,628	-2,5
978,99	-7,3
979,351	-12,1
979,712	-1,7
980,074	-8,1
980,435	-2,2
980,796	-20
981,157	-11
981,518	-4,1
981,879	-9
982,24	-8,5
982,601	-5,3
982,962	-10,6
983,323	-8,8
983,683	-7,3
984,044	-2,9
984,404	-12,5
984,765	-7,9
985,125	-12,7
985,486	1,7
985,846	-13,6
986,206	-10
986,567	-10,5
986,927	-3,7
987,287	-6,4
987,647	6,6
988,007	-8,7
988,367	-5,7
988,727	-8,1
989,087	-7,6
989,446	-9,8
989,806	-17,1
990,166	-7,9
990,525	-15,8
990,885	-2,8
991,244	-5,5
991,604	-8,5
991,963	-11,2
992,322	-3,6
992,682	-6
993,041	-10,8
993,4	-9,1
993,759	-6,5
994,118	-10,2
994,477	-2
994,836	-5
995,195	-11,3
995,553	5,9
995,912	-7,5
996,271	-13,2
996,629	-9,3
996,988	-1
997,346	-8
997,705	3,4
998,063	-6,2
998,422	-4
998,78	-8,1
999,138	-4
999,496	-16,1
999,854	-6,8
1000,212	-9,6
1000,57	-12,8
1000,928	-9,5
1001,286	-7,5
1001,644	-6,6
1002,001	-15,4
1002,359	-9,4
1002,717	-14,4
1003,074	-13,3
1003,432	-15,4
1003,789	-7,1
1004,147	-14
1004,504	-7,6
1004,861	-10,3
1005,218	-11,3
1005,576	-8,4
1005,933	-12,2
1006,29	-19,3
1006,647	-6,2
1007,004	-3,5
1007,36	-7,9
1007,717	-13,6
1008,074	-3,6
1008,431	-6,7
1008,787	-6,8
1009,144	-13,6
1009,5	-1,5
1009,857	-1,2
1010,213	-1,8
1010,569	-13,1
1010,926	-10,9
1011,282	-11
1011,638	-8,6
1011,994	-6,5
1012,35	-20,2
1012,706	-0,2
1013,062	-3,9
1013,418	-6,9
1013,774	-12,1
1014,13	-3,3
1014,485	3,7
1014,841	-9
1015,197	-7
1015,552	0,8
1015,907	0,3
1016,263	-1,3
1016,618	-5,4
1016,974	-5,2
1017,329	-14,2
1017,684	-5,2
1018,039	-0,9
1018,394	-11,3
1018,749	-0,6
1019,104	-2,6
1019,459	-2,6
1019,814	-3,4
1020,168	-3,2
1020,523	-11,6
1020,878	-6,7
1021,232	-16,6
1021,587	-0,8
1021,941	-17,9
1022,296	-5,3
1022,65	-5,4
1023,004	-14
1023,359	2,7
1023,713	-3,7
1024,067	-21,5
1024,421	-3,8
1024,775	-2
1025,129	0,3
1025,483	-17,3
1025,837	-1,3
1026,19	-1,8
1026,544	-15,3
1026,898	-0,8
1027,251	-15,8
1027,605	-8,1
1027,958	-13
1028,312	-17,1
1028,665	-8,8
1029,018	-9,1
1029,372	-6,6
1029,725	-3,5
1030,078	-7,3
1030,431	-10,3
1030,784	-10,5
1031,137	-9,4
1031,49	-13
1031,843	-18,9
1032,195	-4,2
1032,548	-4,8
1032,901	-12,7
1033,253	-13,2
1033,606	-15
1033,958	-12,1
1034,311	-12,4
1034,663	0
1035,016	-6,6
1035,368	-11,2
1035,72	-3,3
1036,072	-13,4
1036,424	-2,3
1036,776	-3,5
1037,128	-2,3
1037,48	-10,7
