
Integration time [ms]:   1.000
Averaging Nr. [scans]: 10
Smoothing Nr. [pixels]: 0
Data measured with spectrometer [name]: 1308032U1
Wave   ;Sample   ;Dark     ;Reference;Scope Corrected for Dark
[nm]   ;[counts] ;[counts] ;[counts] 

 175.73;   87.578;   -2.228;    4.578;89.80556
 176.33;   57.978;   -3.628;   -0.622;61.60556
 176.93;   69.878;    6.172;    8.278;63.70556
 177.53;   58.578;   -0.928;    4.578;59.50556
 178.13;    0.178;    3.872;   -9.522;-3.69444
 178.73;   81.178;   -3.928;   10.178;85.10556
 179.33;   81.578;    8.172;    3.478;73.40556
 179.93;   66.078;   -4.328;   -1.022;70.40556
 180.53;   76.178;    9.472;    6.378;66.70556
 181.13;   83.578;   -6.428;    3.078;90.00556
 181.73;   66.878;    2.572;   -8.622;64.30556
 182.34;  133.378;    8.272;    9.078;125.10556
 182.94;   57.978;   -6.628;   -4.222;64.60556
 183.54;   82.478;   -4.728;   -4.822;87.20556
 184.14;   77.178;    6.772;    2.278;70.40556
 184.74;  157.878;    3.172;   11.778;154.70556
 185.34;   88.578;    4.372;   -7.122;84.20556
 185.94;   82.078;   -7.528;    5.678;89.60556
 186.54;   75.478;   -2.528;   -1.322;78.00556
 187.14;   80.378;    2.272;   -1.122;78.10556
 187.74;   79.178;    4.672;    1.278;74.50556
 188.34;   77.878;    0.672;    6.678;77.20556
 188.94;   81.678;    4.072;   -0.622;77.60556
 189.54;   75.378;   -2.628;    9.778;78.00556
 190.14;   55.678;   -1.328;   -2.722;57.00556
 190.74;   85.178;   -1.028;    4.178;86.20556
 191.34;   86.778;    2.372;    1.878;84.40556
 191.94;   76.678;   -5.828;    8.878;82.50556
 192.54;   85.378;    8.772;    0.478;76.60556
 193.14;   83.078;   -4.528;    2.278;87.60556
 193.74;   95.378;    3.472;   -4.022;91.90556
 194.34;   86.178;    3.472;   -4.622;82.70556
 194.94;   83.578;   -1.228;    5.578;84.80556
 195.54;   75.578;    2.072;   -2.322;73.50556
 196.14;   81.978;    6.872;   -3.122;75.10556
 196.74;   86.178;  -10.428;    5.578;96.60556
 197.34;   72.178;   -2.228;    6.578;74.40556
 197.94;   87.678;   10.672;   -4.422;77.00556
 198.54;   45.878;   -3.228;    5.478;49.10556
 199.14;   72.678;    4.772;    4.578;67.90556
 199.74;   93.778;    0.172;    5.078;93.60556
 200.34;   78.978;   -1.228;   -0.822;80.20556
 200.94;   71.078;   -1.928;    5.578;73.00556
 201.54;   82.178;    6.472;   -5.822;75.70556
 202.14;   48.478;   -9.728;    3.878;58.20556
 202.74;   70.978;    1.372;   10.478;69.60556
 203.34;   75.178;    3.872;   -3.222;71.30556
 203.94;   84.278;    2.172;   -0.822;82.10556
 204.54;   59.378;    0.072;   -4.122;59.30556
 205.14;   83.578;    7.972;   -2.822;75.60556
 205.73;   81.378;  -10.728;    3.278;92.10556
 206.33;   81.678;    5.372;    6.578;76.30556
 206.93;   87.278;    7.772;    0.878;79.50556
 207.53;   89.778;    3.372;    8.478;86.40556
 208.13;   81.878;   -3.028;   -2.122;84.90556
 208.73;   81.578;    0.672;   -1.522;80.90556
 209.33;   81.378;   -7.328;    4.278;88.70556
 209.93;   80.378;    8.472;    4.378;71.90556
 210.53;   92.778;    7.372;    1.678;85.40556
 211.13;   81.478;    7.272;   -4.522;74.20556
 211.73;   84.478;    5.072;    3.278;79.40556
 212.33;   83.878;    5.072;    3.778;78.80556
 212.93;   52.878;  -10.428;   -5.122;63.30556
 213.53;   68.678;   11.672;    1.678;57.00556
 214.12;   89.778;    0.372;    0.778;89.40556
 214.72;   74.378;   -9.428;   -5.122;83.80556
 215.32;   37.278;    1.572;    4.278;35.70556
 215.92;   86.478;    6.372;    0.078;80.10556
 216.52;   91.378;   -8.328;    1.378;99.70556
 217.12;   76.978;    8.772;    7.478;68.20556
 217.72;   94.378;   -3.428;    2.578;97.80556
 218.32;   82.978;   -2.228;   -1.822;85.20556
 218.92;   55.878;   -2.828;    1.478;58.70556
 219.51;   88.078;    6.772;    1.278;81.30556
 220.11;   87.078;   -0.328;    0.078;87.40556
 220.71;   85.378;    5.972;    5.578;79.40556
 221.31;   85.778;   -4.928;   -2.522;90.70556
 221.91;   92.478;   -0.828;    1.778;93.30556
 222.51;   93.178;    3.572;    3.978;89.60556
 223.11;   92.878;    2.972;   12.278;89.90556
 223.71;   90.978;   -6.028;   -4.222;97.00556
 224.30;   78.678;    9.672;    6.578;69.00556
 224.90;   97.678;    3.072;   -7.322;94.60556
 225.50;   90.878;    1.172;   -0.322;89.70556
 226.10;   67.178;   -4.828;    8.378;72.00556
 226.70;   94.978;   -1.128;    4.778;96.10556
 227.30;   89.278;   -2.428;   -2.622;91.70556
 227.89;   82.078;   10.472;    8.778;71.60556
 228.49;  108.378;   -0.828;    7.378;109.20556
 229.09;   73.678;   -7.528;   -8.322;81.20556
 229.69;   69.578;   -3.428;    1.478;73.00556
 230.29;  108.278;    0.072;   -8.222;108.20556
 230.89;   99.478;    3.472;   -0.322;96.00556
 231.48;   72.778;    5.972;    5.778;66.80556
 232.08;   97.678;   -2.528;    3.178;100.20556
 232.68;   98.678;    3.672;   -5.322;95.00556
 233.28;   75.878;   10.972;   13.278;64.90556
 233.88;   94.878;    2.472;   -9.122;92.40556
 234.48;   86.078;   -1.828;    2.378;87.90556
 235.07;  100.578;    2.572;    1.678;98.00556
 235.67;  102.578;    3.072;    7.378;99.50556
 236.27;   77.878;   -4.028;   -6.822;81.90556
 236.87;   98.078;    1.672;   12.978;96.40556
 237.47;  120.078;    5.972;   -4.822;114.10556
 238.06;   89.778;   -0.028;    5.178;89.80556
 238.66;   90.878;    4.272;    0.078;86.60556
 239.26;  103.478;   -2.028;    7.778;105.50556
 239.86;  102.478;   -2.928;   -0.122;105.40556
 240.45;   96.778;    5.872;    3.478;90.90556
 241.05;   96.278;    1.172;  -10.422;95.10556
 241.65;  111.378;    2.172;    3.178;109.20556
 242.25;  106.578;    1.372;    8.878;105.20556
 242.85;   98.478;    2.372;    5.278;96.10556
 243.44;  103.878;    0.172;  -10.622;103.70556
 244.04;   57.578;    0.872;    4.578;56.70556
 244.64;  100.978;   -1.128;   -0.322;102.10556
 245.24;  109.978;   11.872;    1.178;98.10556
 245.83;   91.778;    4.672;    5.778;87.10556
 246.43;  100.878;    4.872;    3.478;96.00556
 247.03;  103.778;    2.672;   -4.522;101.10556
 247.63;   94.378;    4.372;    9.878;90.00556
 248.22;  108.678;   -7.528;   -0.222;116.20556
 248.82;   94.078;    8.072;   -6.522;86.00556
 249.42;  103.578;    1.072;    2.578;102.50556
 250.02;   89.478;    4.572;    2.478;84.90556
 250.61;  101.878;   -0.028;   -0.022;101.90556
 251.21;   95.678;    2.272;    5.378;93.40556
 251.81;  102.778;   -6.728;    4.078;109.50556
 252.41;   89.778;    4.072;   -3.622;85.70556
 253.00;   93.678;    5.372;    8.478;88.30556
 253.60;  105.678;   -1.328;    5.978;107.00556
 254.20;  103.178;   -3.328;    0.178;106.50556
 254.79;   93.478;   -0.228;    8.678;93.70556
 255.39;   97.378;   -4.028;    2.178;101.40556
 255.99;   95.978;    2.672;    0.078;93.30556
 256.59;   91.678;    7.672;    6.378;84.00556
 257.18;   74.578;   -1.428;    3.278;76.00556
 257.78;   86.078;   11.772;   -4.422;74.30556
 258.38;   99.478;   -2.628;    4.378;102.10556
 258.97;   98.578;  -10.328;   -1.022;108.90556
 259.57;   72.278;    6.472;   -1.222;65.80556
 260.17;   95.578;    3.472;   11.078;92.10556
 260.76;   85.178;   -6.428;    2.878;91.60556
 261.36;   95.778;    1.672;   -7.122;94.10556
 261.96;   87.278;   -0.128;    8.978;87.40556
 262.55;   91.378;   -3.028;   -0.722;94.40556
 263.15;   96.178;    5.972;   -2.522;90.20556
 263.75;   94.378;   -3.228;    0.478;97.60556
 264.34;   86.878;   -9.728;    8.378;96.60556
 264.94;   76.078;   10.372;   -6.422;65.70556
 265.54;   81.678;    2.972;    6.378;78.70556
 266.13;   97.578;   -1.628;    4.678;99.20556
 266.73;   94.878;    7.072;    4.478;87.80556
 267.33;   98.778;    0.472;    5.578;98.30556
 267.92;   84.978;   -0.928;    4.178;85.90556
 268.52;   98.078;    6.772;   -5.422;91.30556
 269.12;   86.178;    7.272;    1.078;78.90556
 269.71;   73.378;   -7.828;    9.078;81.20556
 270.31;   92.578;   10.272;   -3.522;82.30556
 270.90;   95.278;    8.172;    1.878;87.10556
 271.50;   91.578;   -2.228;    5.378;93.80556
 272.10;   92.778;    4.572;    2.078;88.20556
 272.69;  119.778;    6.372;   -0.422;113.40556
 273.29;   78.278;   -8.828;    3.278;87.10556
 273.89;   85.378;   10.172;   -1.922;75.20556
 274.48;   83.078;   -2.328;    7.478;85.40556
 275.08;   90.278;    3.472;    3.678;86.80556
 275.67;   85.378;    5.672;    3.978;79.70556
 276.27;   81.578;    0.372;   -4.222;81.20556
 276.87;   83.678;   -0.428;   11.878;84.10556
 277.46;   85.478;   11.172;   -1.122;74.30556
 278.06;   90.478;   -1.128;   12.278;91.60556
 278.65;   79.678;   -1.528;    9.678;81.20556
 279.25;   85.878;    5.172;    0.878;80.70556
 279.85;   83.378;    4.572;   -1.522;78.80556
 280.44;   77.678;    1.372;   10.378;76.30556
 281.04;   77.578;    9.172;   -7.722;68.40556
 281.63;   72.578;   -8.228;   12.278;80.80556
 282.23;   83.778;   -0.128;    5.878;83.90556
 282.83;   74.578;    3.372;    4.478;71.20556
 283.42;   67.678;    2.172;   -2.122;65.50556
 284.02;   32.278;   -0.228;    7.378;32.50556
 284.61;   58.978;    7.672;    3.878;51.30556
 285.21;   45.378;   -0.028;    4.778;45.40556
 285.80;   65.278;    2.472;    1.878;62.80556
 286.40;   65.278;    5.872;    3.678;59.40556
 286.99;   67.978;    1.472;    1.778;66.50556
 287.59;   65.078;    4.572;    8.878;60.50556
 288.19;   47.778;    8.372;   -4.222;39.40556
 288.78;   56.778;  -10.428;    9.878;67.20556
 289.38;   49.878;    2.772;    0.878;47.10556
 289.97;   61.378;    9.372;    4.178;52.00556
 290.57;   52.278;   -1.628;   -2.522;53.90556
 291.16;   45.078;    3.572;   10.078;41.50556
 291.76;   51.178;   15.972;   -2.022;35.20556
 292.35;   39.578;   -5.728;    8.578;45.30556
 292.95;   53.478;    4.972;    3.978;48.50556
 293.54;   36.578;    2.972;    6.278;33.60556
 294.14;   51.878;    0.672;   -2.022;51.20556
 294.73;   57.378;   -2.728;   11.378;60.10556
 295.33;   48.278;   11.772;   -7.322;36.50556
 295.92;   48.978;   -1.728;   14.378;50.70556
 296.52;   34.678;    2.472;   -2.022;32.20556
 297.11;   43.678;    0.972;    0.878;42.70556
 297.71;   44.178;   -4.028;   -5.622;48.20556
 298.30;   43.678;    5.272;    6.878;38.40556
 298.90;   20.378;    8.372;  -15.122;12.00556
 299.49;   37.878;   -5.528;    8.378;43.40556
 300.09;   58.178;    6.172;    4.778;52.00556
 300.68;   45.178;    9.772;    4.378;35.40556
 301.28;   48.678;    2.172;    1.078;46.50556
 301.87;   42.978;   -0.428;    6.278;43.40556
 302.47;   42.578;    7.072;   -1.222;35.50556
 303.06;   34.378;   -2.928;    4.978;37.30556
 303.66;   14.278;    1.872;    2.378;12.40556
 304.25;   43.178;    9.672;    6.178;33.50556
 304.85;   24.778;   -4.728;   -1.022;29.50556
 305.44;   36.678;    2.572;   10.678;34.10556
 306.04;   38.778;    5.472;    0.078;33.30556
 306.63;   34.178;   -8.328;    7.078;42.50556
 307.22;   45.478;    5.672;   -0.022;39.80556
 307.82;   22.678;    4.172;    7.378;18.50556
 308.41;   24.278;   -1.528;   -0.022;25.80556
 309.01;   30.878;    3.672;    3.578;27.20556
 309.60;   18.278;   -1.728;   -4.422;20.00556
 310.20;   35.378;    1.672;    3.978;33.70556
 310.79;   21.578;    4.572;   -0.622;17.00556
 311.39;   31.778;    7.672;   10.278;24.10556
 311.98;   29.078;   -5.528;   -4.422;34.60556
 312.57;   36.278;    7.972;   -1.022;28.30556
 313.17;   28.278;    3.572;  -11.722;24.70556
 313.76;   27.378;    1.472;   11.678;25.90556
 314.36;   26.578;    1.572;    5.078;25.00556
 314.95;   24.378;   -2.128;    6.478;26.50556
 315.54;   30.378;    3.372;    3.778;27.00556
 316.14;   33.078;   10.572;   -0.522;22.50556
 316.73;   27.678;    1.772;   -9.922;25.90556
 317.33;   27.378;   -0.928;   11.578;28.30556
 317.92;   36.778;    2.272;    6.778;34.50556
 318.51;   29.378;    2.972;    8.278;26.40556
 319.11;    6.978;   -2.928;   -8.122; 9.90556
 319.70;   31.978;    4.272;    2.878;27.70556
 320.30;   35.178;    0.972;  -13.722;34.20556
 320.89;   27.078;    7.372;    5.078;19.70556
 321.48;   31.078;    6.272;    3.478;24.80556
 322.08;   19.578;    4.072;    9.578;15.50556
 322.67;   30.578;   -5.628;    7.978;36.20556
 323.26;   24.478;    6.472;    3.978;18.00556
 323.86;   14.278;   -0.428;   -3.022;14.70556
 324.45;   24.478;   -1.928;    2.078;26.40556
 325.05;   28.478;    4.672;    5.178;23.80556
 325.64;   21.678;    5.672;   11.178;16.00556
 326.23;   24.878;   -1.628;    0.378;26.50556
 326.83;   28.278;    6.672;   -0.722;21.60556
 327.42;   17.078;    1.072;    1.278;16.00556
 328.01;   29.478;    6.172;    7.578;23.30556
 328.61;   34.978;    2.772;   -0.122;32.20556
 329.20;   27.278;    1.872;    6.778;25.40556
 329.79;   25.678;   -2.828;    2.778;28.50556
 330.39;   27.578;    2.972;    2.978;24.60556
 330.98;   28.878;   -7.628;    4.278;36.50556
 331.57;   27.678;    5.672;   11.978;22.00556
 332.17;   34.178;    3.472;    1.278;30.70556
 332.76;   28.178;    4.072;    5.278;24.10556
 333.35;   17.178;   -0.328;    5.178;17.50556
 333.95;   28.278;    2.972;    2.978;25.30556
 334.54;   25.078;   -2.728;   -6.822;27.80556
 335.13;   32.378;   -0.628;    7.678;33.00556
 335.72;   39.078;    6.872;    3.078;32.20556
 336.32;   28.578;    7.072;    7.278;21.50556
 336.91;   25.078;    0.972;    1.778;24.10556
 337.50;   22.878;    8.572;    2.278;14.30556
 338.10;   26.978;   -5.128;   -8.022;32.10556
 338.69;   22.778;    4.172;   -0.422;18.60556
 339.28;   30.778;    3.772;    2.678;27.00556
 339.87;   23.978;    4.472;    5.678;19.50556
 340.47;   31.378;    2.872;    1.278;28.50556
 341.06;   20.178;   10.872;    5.378; 9.30556
 341.65;   22.478;   -1.828;   -1.822;24.30556
 342.25;   20.178;    5.672;    0.678;14.50556
 342.84;   29.778;    2.872;    4.178;26.90556
 343.43;   23.778;   13.472;    6.278;10.30556
 344.02;   27.978;    2.172;    1.878;25.80556
 344.62;   26.178;    8.372;   -3.422;17.80556
 345.21;   29.178;   -7.828;   -0.722;37.00556
 345.80;   30.078;   11.572;    2.978;18.50556
 346.39;   34.678;    0.672;   10.978;34.00556
 346.99;   22.078;    8.572;    7.678;13.50556
 347.58;   28.278;    2.672;   -0.322;25.60556
 348.17;   39.178;    9.372;    4.278;29.80556
 348.76;   24.978;  -16.228;   -0.922;41.20556
 349.36;   26.078;    6.872;    3.878;19.20556
 349.95;   27.278;    0.072;    7.278;27.20556
 350.54;   25.578;    6.972;    4.978;18.60556
 351.13;   33.178;   -1.328;    5.878;34.50556
 351.72;   18.878;   11.672;    0.578; 7.20556
 352.32;   25.878;   -8.128;   -0.022;34.00556
 352.91;   35.378;    8.072;    3.878;27.30556
 353.50;   17.778;    1.772;   11.278;16.00556
 354.09;   21.978;   -0.828;   14.478;22.80556
 354.68;   36.878;   -0.628;    0.478;37.50556
 355.28;   24.578;    9.072;    0.578;15.50556
 355.87;   29.978;   -0.528;   12.378;30.50556
 356.46;   25.078;   11.972;   -1.522;13.10556
 357.05;   31.578;    2.172;   13.978;29.40556
 357.64;   21.578;   -1.228;    4.378;22.80556
 358.24;   24.978;    2.172;   -1.222;22.80556
 358.83;    8.678;    4.872;    1.678; 3.80556
 359.42;   30.478;   -2.028;    0.978;32.50556
 360.01;   34.278;    6.872;    1.578;27.40556
 360.60;   32.578;    2.572;    6.878;30.00556
 361.19;   32.078;    3.972;    5.478;28.10556
 361.79;   39.078;    1.472;    2.178;37.60556
 362.38;   25.178;    8.872;    0.578;16.30556
 362.97;   19.078;   -4.228;    0.578;23.30556
 363.56;   33.578;    8.672;   -3.122;24.90556
 364.15;   25.078;    1.672;    4.378;23.40556
 364.74;   39.378;    3.072;    7.278;36.30556
 365.34;   20.878;    0.172;    8.978;20.70556
 365.93;   25.978;    4.472;   -0.022;21.50556
 366.52;   32.278;   -0.628;    0.478;32.90556
 367.11;   33.278;    6.372;    4.878;26.90556
 367.70;   32.678;    4.372;   12.978;28.30556
 368.29;   33.578;   -4.228;    9.478;37.80556
 368.88;   26.778;    3.972;    3.878;22.80556
 369.47;   36.178;   -2.728;    3.178;38.90556
 370.07;   34.178;   -0.628;   -0.222;34.80556
 370.66;   32.178;   11.772;    6.578;20.40556
 371.25;   29.478;    5.472;    1.678;24.00556
 371.84;   34.478;   -0.628;   11.878;35.10556
 372.43;   34.078;    4.672;    4.978;29.40556
 373.02;   39.278;    0.172;   -3.022;39.10556
 373.61;   35.878;    2.372;    4.778;33.50556
 374.20;   30.778;   11.672;    2.078;19.10556
 374.79;   18.578;    2.472;    4.378;16.10556
 375.39;   30.778;    3.172;    7.278;27.60556
 375.98;   36.378;    8.472;    5.678;27.90556
 376.57;   62.278;   -2.328;    5.478;64.60556
 377.16;   28.278;   -2.328;    4.978;30.60556
 377.75;   40.678;    9.372;    5.678;31.30556
 378.34;   26.478;    7.772;    8.878;18.70556
 378.93;   36.478;   -1.528;    8.178;38.00556
 379.52;   18.478;    7.372;    4.778;11.10556
 380.11;   29.178;   -2.128;    2.478;31.30556
 380.70;   10.678;    4.772;   -4.422; 5.90556
 381.29;   34.478;    7.872;    0.778;26.60556
 381.88;   26.278;    2.272;    2.778;24.00556
 382.47;   39.278;    0.772;   12.778;38.50556
 383.06;   23.978;    6.272;    2.678;17.70556
 383.65;   32.578;   -5.528;    5.078;38.10556
 384.25;   19.878;    2.272;    1.278;17.60556
 384.84;   36.678;    3.672;    8.078;33.00556
 385.43;   13.878;    0.572;    2.778;13.30556
 386.02;   33.778;   -6.028;   11.678;39.80556
 386.61;   28.978;    4.272;   10.878;24.70556
 387.20;   27.678;    2.072;   -3.122;25.60556
 387.79;   25.078;    6.772;   -5.422;18.30556
 388.38;   33.878;    5.472;    5.078;28.40556
 388.97;   30.578;   14.272;    5.178;16.30556
 389.56;   19.678;   -5.928;    7.878;25.60556
 390.15;   24.678;    4.172;    1.278;20.50556
 390.74;   28.478;   -5.228;   -3.422;33.70556
 391.33;   26.178;    7.772;   -0.022;18.40556
 391.92;   28.578;    2.872;    9.578;25.70556
 392.51;   28.178;    1.472;   -4.122;26.70556
 393.10;   18.878;    1.772;    9.578;17.10556
 393.69;   23.978;    7.372;    3.978;16.60556
 394.28;   25.378;   -6.228;   -1.022;31.60556
 394.87;   30.278;    0.072;    1.078;30.20556
 395.46;   40.578;    1.872;    9.978;38.70556
 396.05;   27.678;    3.872;   -1.122;23.80556
 396.64;   35.478;    2.072;    8.078;33.40556
 397.23;   34.978;    5.572;    5.678;29.40556
 397.82;   32.678;   -4.128;    8.178;36.80556
 398.41;   33.278;    7.172;   -9.922;26.10556
 399.00;   38.878;    2.972;    8.778;35.90556
 399.58;   49.478;    7.272;    5.578;42.20556
 400.17;   40.378;    1.772;   12.478;38.60556
 400.76;   57.878;    6.872;   10.078;51.00556
 401.35;   39.678;   -6.328;    0.178;46.00556
 401.94;   39.678;    3.672;    0.878;36.00556
 402.53;   33.578;    5.372;    3.878;28.20556
 403.12;   43.778;    7.772;   -1.422;36.00556
 403.71;   48.878;    4.172;    1.578;44.70556
 404.30;   43.278;    1.972;   -0.122;41.30556
 404.89;   55.078;   -6.028;   -4.722;61.10556
 405.48;   43.278;    9.572;    4.078;33.70556
 406.07;   74.078;   -0.128;    6.578;74.20556
 406.66;   64.378;    2.172;   -5.622;62.20556
 407.25;   81.778;   -8.628;   19.478;90.40556
 407.84;   67.778;    7.172;   11.678;60.60556
 408.42;   79.778;    2.572;    2.978;77.20556
 409.01;   80.078;    7.172;   -1.922;72.90556
 409.60;   83.378;    2.472;    3.778;80.90556
 410.19;   94.978;    1.172;   -1.522;93.80556
 410.78;  125.378;    0.072;   14.078;125.30556
 411.37;  100.378;    4.972;    5.578;95.40556
 411.96;  144.678;   -4.528;   -0.722;149.20556
 412.55;  167.378;   10.472;   -1.822;156.90556
 413.14;  182.878;    3.672;    5.378;179.20556
 413.72;  162.578;    5.772;   -6.322;156.80556
 414.31;  217.978;    0.672;    4.578;217.30556
 414.90;  242.078;    4.772;    1.778;237.30556
 415.49;  257.478;   -0.828;    8.578;258.30556
 416.08;  299.678;    5.772;   -3.222;293.90556
 416.67;  360.178;    0.172;    1.678;360.00556
 417.26;  399.278;    0.672;   -0.022;398.60556
 417.85;  352.278;   -2.928;   15.878;355.20556
 418.43;  423.978;    3.472;    2.078;420.50556
 419.02;  496.778;   -3.428;   15.878;500.20556
 419.61;  463.078;    4.872;   -2.322;458.20556
 420.20;  477.878;    6.872;    9.578;471.00556
 420.79;  376.278;    6.372;   -2.922;369.90556
 421.38;  451.178;   -1.528;    4.578;452.70556
 421.96;  380.078;    4.272;    9.978;375.80556
 422.55;  378.978;    2.772;    5.878;376.20556
 423.14;  355.978;   10.872;   -7.122;345.10556
 423.73;  342.078;    2.572;   11.578;339.50556
 424.32;  275.778;   -1.028;    5.378;276.80556
 424.91;  296.278;    6.172;    8.578;290.10556
 425.49;  276.778;   -0.328;    8.078;277.10556
 426.08;  281.278;    4.972;    1.778;276.30556
 426.67;  291.478;    6.172;   -9.622;285.30556
 427.26;  323.178;    2.672;   13.178;320.50556
 427.85;  312.578;    0.172;    2.178;312.40556
 428.43;  363.478;    6.472;    6.078;357.00556
 429.02;  341.078;   -0.428;    5.578;341.50556
 429.61;  314.478;   -4.128;    2.078;318.60556
 430.20;  318.578;   10.172;   -0.222;308.40556
 430.79;  271.778;    4.572;    7.478;267.20556
 431.37;  277.378;   -0.828;   -0.222;278.20556
 431.96;  230.878;   -4.228;    7.878;235.10556
 432.55;  245.578;   -1.128;   -4.422;246.70556
 433.14;  271.678;    5.072;   10.878;266.60556
 433.72;  221.878;    5.072;   -8.222;216.80556
 434.31;  260.478;    3.872;    8.878;256.60556
 434.90;  279.378;   -0.328;   -2.622;279.70556
 435.49;  275.678;    5.872;   -0.022;269.80556
 436.07;  270.778;   -2.528;    3.278;273.30556
 436.66;  255.378;    7.772;    8.778;247.60556
 437.25;  241.378;    7.872;   -0.722;233.50556
 437.84;  237.478;    8.372;    1.478;229.10556
 438.42;  269.078;   -9.228;   -9.122;278.30556
 439.01;  242.078;    2.472;    6.178;239.60556
 439.60;  273.178;  -10.728;    4.978;283.90556
 440.19;  255.578;    6.872;   12.078;248.70556
 440.77;  201.878;    4.272;   -8.022;197.60556
 441.36;  236.778;   12.772;    9.278;224.00556
 441.95;  223.878;   -5.428;    2.578;229.30556
 442.53;  234.878;   -4.228;    7.478;239.10556
 443.12;  223.478;   -4.428;    0.278;227.90556
 443.71;  242.078;    2.472;    4.278;239.60556
 444.30;  224.078;   -2.628;   -1.322;226.70556
 444.88;  220.678;    7.672;   -0.322;213.00556
 445.47;  179.778;    1.572;    1.278;178.20556
 446.06;  228.278;   -2.228;   16.878;230.50556
 446.64;  207.178;   -4.028;    2.878;211.20556
 447.23;  219.478;    3.672;   12.278;215.80556
 447.82;  238.078;    3.272;    4.078;234.80556
 448.40;  220.378;    4.872;    2.378;215.50556
 448.99;  189.278;   -2.328;    3.778;191.60556
 449.58;  197.178;    4.172;    2.978;193.00556
 450.16;  195.478;   -3.128;    1.878;198.60556
 450.75;  196.078;    2.972;   10.178;193.10556
 451.34;  212.278;    0.072;   -1.322;212.20556
 451.92;  229.878;    6.872;   -0.722;223.00556
 452.51;  210.678;   -4.228;   -1.122;214.90556
 453.10;  203.678;    2.772;    4.978;200.90556
 453.68;  181.778;  -10.528;   -3.022;192.30556
 454.27;  209.778;    5.772;    8.678;204.00556
 454.86;  198.678;    0.172;    2.478;198.50556
 455.44;  217.578;    7.972;    2.078;209.60556
 456.03;  122.878;   -0.728;    2.778;123.60556
 456.62;  203.778;   11.572;   10.278;192.20556
 457.20;  212.578;   -5.728;    1.978;218.30556
 457.79;  225.978;    3.372;    6.578;222.60556
 458.37;  228.078;    0.372;   -4.822;227.70556
 458.96;  219.178;    3.072;   -3.822;216.10556
 459.55;  245.678;    5.172;   -0.422;240.50556
 460.13;  234.278;    7.372;    5.978;226.90556
 460.72;  239.778;   -5.628;   -0.622;245.40556
 461.31;  235.378;    2.772;    6.878;232.60556
 461.89;  254.578;    4.872;    1.878;249.70556
 462.48;  254.878;    2.772;   -1.522;252.10556
 463.06;  265.278;   -0.328;    3.678;265.60556
 463.65;  324.778;    7.372;    9.578;317.40556
 464.24;  243.878;   -8.628;    0.478;252.50556
 464.82;  245.178;   12.472;    4.578;232.70556
 465.41;  275.978;    2.072;   -0.722;273.90556
 465.99;  251.378;    7.572;    3.078;243.80556
 466.58;  304.678;   -2.728;    1.678;307.40556
 467.16;  263.878;    4.872;    3.378;259.00556
 467.75;  288.178;   -5.328;    3.878;293.50556
 468.34;  280.178;   14.172;    6.278;266.00556
 468.92;  270.478;   -2.628;    2.678;273.10556
 469.51;  265.678;   10.872;   -7.022;254.80556
 470.09;  296.578;   -5.628;    3.878;302.20556
 470.68;  292.878;   12.572;    8.378;280.30556
 471.26;  286.478;   -6.128;    4.478;292.60556
 471.85;  293.178;   16.072;    7.378;277.10556
 472.43;  286.278;    0.672;    2.978;285.60556
 473.02;  260.978;    6.872;   -5.222;254.10556
 473.61;  307.578;    6.172;   -5.222;301.40556
 474.19;  299.678;    3.472;    2.478;296.20556
 474.78;  297.078;   -7.028;    3.278;304.10556
 475.36;  312.078;    7.272;    4.678;304.80556
 475.95;  367.878;    6.172;   -1.822;361.70556
 476.53;  319.378;    0.572;    0.278;318.80556
 477.12;  280.978;    1.472;    0.978;279.50556
 477.70;  327.278;    7.472;    5.078;319.80556
 478.29;  332.378;   -6.228;    8.478;338.60556
 478.87;  361.878;    7.272;    8.178;354.60556
 479.46;  328.478;    6.672;   -2.322;321.80556
 480.04;  345.678;    3.272;    6.078;342.40556
 480.63;  355.178;   -5.628;   -5.822;360.80556
 481.21;  388.678;    6.172;    8.378;382.50556
 481.80;  349.378;  -14.428;    2.478;363.80556
 482.38;  338.478;   11.072;   12.478;327.40556
 482.97;  347.578;    4.872;    2.178;342.70556
 483.55;  409.178;    4.872;    2.478;404.30556
 484.14;  364.978;   -1.128;   -7.922;366.10556
 484.72;  348.778;    1.172;    6.678;347.60556
 485.30;  345.378;   -4.428;   -1.822;349.80556
 485.89;  354.678;    7.472;    2.478;347.20556
 486.47;  367.178;    6.772;    6.978;360.40556
 487.06;  333.978;   -1.528;    1.678;335.50556
 487.64;  358.478;   -0.628;   -3.522;359.10556
 488.23;  360.878;    4.772;    4.078;356.10556
 488.81;  280.978;   -1.628;   -1.722;282.60556
 489.40;  439.278;    9.672;   12.178;429.60556
 489.98;  406.078;    4.472;    8.478;401.60556
 490.56;  366.778;   -1.828;   -1.522;368.60556
 491.15;  352.178;    3.872;   -5.422;348.30556
 491.73;  358.878;   -3.128;    1.978;362.00556
 492.32;  428.578;    0.272;    7.178;428.30556
 492.90;  376.278;    4.972;    4.978;371.30556
 493.49;  389.078;    5.372;    7.978;383.70556
 494.07;  361.578;   -2.428;    4.278;364.00556
 494.65;  385.078;    4.572;   -4.422;380.50556
 495.24;  352.678;   -0.828;   14.078;353.50556
 495.82;  373.478;   -2.628;   -0.422;376.10556
 496.41;  394.178;    0.772;   -2.022;393.40556
 496.99;  342.078;    3.872;    2.778;338.20556
 497.57;  379.778;   -1.428;   -0.322;381.20556
 498.16;  342.378;    0.772;   -3.522;341.60556
 498.74;  386.478;   -0.928;    9.378;387.40556
 499.33;  369.578;    0.872;    1.678;368.70556
 499.91;  379.978;    3.372;    5.878;376.60556
 500.49;  390.778;    7.772;    7.378;383.00556
 501.08;  379.478;   -0.728;   -5.522;380.20556
 501.66;  368.378;   10.972;   -2.622;357.40556
 502.24;  381.578;   -1.028;    2.478;382.60556
 502.83;  327.578;   -3.228;    3.978;330.80556
 503.41;  317.378;   -4.928;    0.978;322.30556
 503.99;  420.478;    4.272;    9.178;416.20556
 504.58;  360.578;   -5.128;   -7.522;365.70556
 505.16;  395.578;    4.772;   -7.322;390.80556
 505.75;  316.078;   -4.628;    3.378;320.70556
 506.33;  441.978;   -1.028;    8.978;443.00556
 506.91;  363.178;    1.572;    7.478;361.60556
 507.50;  373.378;    7.472;    3.978;365.90556
 508.08;  389.378;   -0.328;    1.278;389.70556
 508.66;  371.678;    2.272;   -0.922;369.40556
 509.25;  377.678;   -0.928;    8.378;378.60556
 509.83;  355.178;    3.172;   10.078;352.00556
 510.41;  356.878;   -0.728;   -1.522;357.60556
 510.99;  337.178;    3.672;   -0.722;333.50556
 511.58;  358.578;   -1.528;    8.178;360.10556
 512.16;  352.178;    5.772;  -11.222;346.40556
 512.74;  351.978;   -1.328;    6.378;353.30556
 513.33;  379.278;    1.372;    4.378;377.90556
 513.91;  345.078;   -0.928;    2.778;346.00556
 514.49;  401.978;    6.472;    2.078;395.50556
 515.08;  359.178;   -5.928;    6.678;365.10556
 515.66;  340.078;    7.572;   -1.322;332.50556
 516.24;  356.178;   -8.628;    2.578;364.80556
 516.82;  344.878;    6.772;    0.878;338.10556
 517.41;  315.378;    5.572;   -3.522;309.80556
 517.99;  329.578;   15.372;    5.478;314.20556
 518.57;  317.778;   -5.028;    3.378;322.80556
 519.15;  387.978;   11.172;    2.278;376.80556
 519.74;  293.778;   -4.328;    5.378;298.10556
 520.32;  328.278;    1.572;    3.378;326.70556
 520.90;  343.978;    3.972;    1.878;340.00556
 521.48;  329.878;    3.372;    4.578;326.50556
 522.07;  315.678;   -4.328;   -1.622;320.00556
 522.65;  314.578;    5.572;   -4.022;309.00556
 523.23;  254.378;   -3.328;    7.378;257.70556
 523.81;  315.278;    0.472;    1.078;314.80556
 524.40;  309.378;    5.572;    6.278;303.80556
 524.98;  312.278;   14.172;    1.278;298.10556
 525.56;  293.178;    2.472;    3.678;290.70556
 526.14;  326.078;    7.372;   -3.622;318.70556
 526.72;  292.078;   -4.628;    4.578;296.70556
 527.31;  318.378;    1.272;    5.478;317.10556
 527.89;  289.078;    3.572;    3.878;285.50556
 528.47;  286.578;    8.972;    7.078;277.60556
 529.05;  234.778;   -3.628;   -0.122;238.40556
 529.63;  301.278;    9.372;   -2.622;291.90556
 530.22;  297.878;   -6.928;    7.178;304.80556
 530.80;  241.578;   -1.128;   -1.522;242.70556
 531.38;  277.878;    1.272;    3.078;276.60556
 531.96;  261.778;    6.072;    3.778;255.70556
 532.54;  263.178;    0.372;    6.078;262.80556
 533.13;  279.478;    2.472;   -5.622;277.00556
 533.71;  248.778;   -6.928;    9.778;255.70556
 534.29;  265.278;   -1.228;    2.178;266.50556
 534.87;  270.978;    3.972;    1.378;267.00556
 535.45;  241.778;    9.872;    4.078;231.90556
 536.03;  245.878;    3.172;    7.778;242.70556
 536.62;  241.178;    0.272;   -4.922;240.90556
 537.20;  244.578;   -8.328;   14.878;252.90556
 537.78;  260.878;    9.572;    3.678;251.30556
 538.36;  248.678;    1.872;    8.778;246.80556
 538.94;  213.478;   -2.728;    2.478;216.20556
 539.52;  219.178;   -1.928;    1.078;221.10556
 540.10;  258.578;    5.472;    2.378;253.10556
 540.69;  217.378;   -1.928;    1.678;219.30556
 541.27;  218.678;   10.672;    9.278;208.00556
 541.85;  214.778;    3.772;   -0.222;211.00556
 542.43;  192.778;   11.872;    8.478;180.90556
 543.01;  279.878;    0.372;    3.678;279.50556
 543.59;  238.978;   -0.828;    5.178;239.80556
 544.17;  166.978;   -9.428;    2.678;176.40556
 544.75;  193.478;   10.872;    3.978;182.60556
 545.33;  195.178;   -1.628;    6.578;196.80556
 545.92;  190.978;    5.672;    5.678;185.30556
 546.50;  184.778;    0.272;    1.778;184.50556
 547.08;  179.278;    6.072;    2.678;173.20556
 547.66;  200.278;   -6.228;    7.378;206.50556
 548.24;  184.378;    4.472;    0.878;179.90556
 548.82;  182.978;   -1.328;    7.978;184.30556
 549.40;  162.978;    2.172;   -4.522;160.80556
 549.98;  169.178;   -4.128;    9.978;173.30556
 550.56;  158.978;    2.672;    0.078;156.30556
 551.14;  154.478;   -6.928;    7.078;161.40556
 551.72;  159.078;   11.072;   -1.022;148.00556
 552.30;  161.678;    6.372;    1.378;155.30556
 552.88;  156.878;   -1.728;    9.978;158.60556
 553.46;  149.678;    4.472;    0.378;145.20556
 554.04;  143.678;    0.272;   -3.622;143.40556
 554.62;  136.978;    2.772;    8.778;134.20556
 555.21;  129.178;    9.072;    6.178;120.10556
 555.79;  123.378;   -0.628;    2.578;124.00556
 556.37;  122.778;    0.672;    6.778;122.10556
 556.95;  133.778;    3.172;    0.178;130.60556
 557.53;  128.178;    2.172;   -0.322;126.00556
 558.11;  119.578;   -8.328;    5.178;127.90556
 558.69;  114.578;    4.572;    7.978;110.00556
 559.27;  123.078;   -2.128;   -0.222;125.20556
 559.85;  114.078;    3.172;    7.678;110.90556
 560.43;   80.678;   -0.428;    0.878;81.10556
 561.01;  109.978;    4.672;   -0.522;105.30556
 561.59;  142.478;    1.272;   -0.922;141.20556
 562.17;  116.678;    7.672;   -0.122;109.00556
 562.75;  110.778;   -2.528;    6.478;113.30556
 563.33;   93.778;    2.872;   10.078;90.90556
 563.91;   49.678;   -4.828;   -4.022;54.50556
 564.49;  104.078;    5.672;    1.378;98.40556
 565.07;   82.478;   -2.428;    1.478;84.90556
 565.65;  102.178;    4.072;   -2.722;98.10556
 566.23;  111.778;    1.272;    6.378;110.50556
 566.80;  117.578;   -3.228;    1.178;120.80556
 567.38;  124.278;    3.972;    1.378;120.30556
 567.96;  119.678;    1.472;   -1.222;118.20556
 568.54;  151.478;    2.172;    7.378;149.30556
 569.12;  100.978;   -3.828;    3.178;104.80556
 569.70;  131.578;   -3.028;    7.578;134.60556
 570.28;   93.178;   -3.328;    1.078;96.50556
 570.86;  230.178;   -1.128;    5.578;231.30556
 571.44;   71.978;    0.272;   -5.022;71.70556
 572.02;  158.078;    1.572;    3.878;156.50556
 572.60;  164.278;    8.372;    0.478;155.90556
 573.18;  166.878;    2.472;   11.878;164.40556
 573.76;  158.078;    3.672;    0.878;154.40556
 574.34;  176.178;   -5.028;    0.778;181.20556
 574.92;  170.378;   -2.628;    3.378;173.00556
 575.49;  171.978;   -2.528;    0.978;174.50556
 576.07;  190.878;    6.472;   10.378;184.40556
 576.65;  209.778;    2.372;    5.478;207.40556
 577.23;  246.278;    4.472;    7.878;241.80556
 577.81;  214.478;    1.772;   -1.022;212.70556
 578.39;  197.678;   -5.228;   10.278;202.90556
 578.97;  217.678;   -1.128;    0.778;218.80556
 579.55;  227.878;    5.672;    8.878;222.20556
 580.13;  254.278;   12.372;    7.078;241.90556
 580.70;  254.678;   -0.128;   -2.022;254.80556
 581.28;  262.278;   -2.728;    2.378;265.00556
 581.86;  276.878;   -5.528;    3.178;282.40556
 582.44;  269.078;    1.572;   -1.622;267.50556
 583.02;  303.078;    9.372;    2.678;293.70556
 583.60;  332.378;    2.972;    0.178;329.40556
 584.18;  310.978;   10.172;    3.978;300.80556
 584.76;  334.878;    1.772;    3.978;333.10556
 585.33;  345.878;   -5.828;    2.078;351.70556
 585.91;  359.678;    5.072;    4.878;354.60556
 586.49;  356.978;    4.972;    4.178;352.00556
 587.07;  380.878;    6.272;    4.878;374.60556
 587.65;  370.678;    2.972;   -2.522;367.70556
 588.23;  428.278;   -0.928;    2.678;429.20556
 588.80;  422.478;   -0.428;    1.178;422.90556
 589.38;  446.978;    3.072;    2.478;443.90556
 589.96;  412.078;    5.872;    5.278;406.20556
 590.54;  386.978;    2.372;    1.778;384.60556
 591.12;  424.878;    5.472;   -1.022;419.40556
 591.69;  442.378;    1.072;    3.478;441.30556
 592.27;  456.378;    0.372;   -0.522;456.00556
 592.85;  423.778;   -0.928;    1.378;424.70556
 593.43;  438.378;    6.272;    6.178;432.10556
 594.01;  429.178;    4.872;    3.678;424.30556
 594.58;  433.978;   -1.428;    8.278;435.40556
 595.16;  454.578;   -0.628;    7.178;455.20556
 595.74;  436.978;    3.172;    1.878;433.80556
 596.32;  485.278;    6.172;   -3.022;479.10556
 596.89;  453.678;    8.872;    4.178;444.80556
 597.47;  513.378;    1.472;   13.878;511.90556
 598.05;  484.078;   -6.728;    0.878;490.80556
 598.63;  468.278;    1.572;    2.078;466.70556
 599.20;  493.478;   -1.328;   -4.822;494.80556
 599.78;  534.978;    6.572;   -0.422;528.40556
 600.36;  511.378;    1.772;    5.378;509.60556
 600.94;  574.478;    4.372;   12.678;570.10556
 601.51;  509.778;    2.372;    2.078;507.40556
 602.09;  571.478;    9.172;   -1.822;562.30556
 602.67;  662.778;   -4.128;    0.778;666.90556
 603.25;  640.278;    6.672;   -1.422;633.60556
 603.82;  633.078;   -0.928;    1.678;634.00556
 604.40;  628.678;    4.672;    9.178;624.00556
 604.98;  684.778;   -3.728;    4.478;688.50556
 605.56;  709.078;    7.672;    2.978;701.40556
 606.13;  820.778;   -4.328;   -1.922;825.10556
 606.71;  841.778;    1.572;    1.178;840.20556
 607.29;  786.978;    0.972;   -0.322;786.00556
 607.86;  839.578;    2.772;    7.378;836.80556
 608.44;  971.378;   -5.428;    1.578;976.80556
 609.02;  914.078;    2.072;   -0.922;912.00556
 609.59;  982.478;   -0.628;    5.178;983.10556
 610.17;  951.578;    0.772;   -2.822;950.80556
 610.75; 1166.978;    3.772;    9.478;1163.20556
 611.32; 1094.778;    8.172;    3.878;1086.60556
 611.90; 1194.678;   -5.528;    1.078;1200.20556
 612.48; 1285.478;   18.172;   11.078;1267.30556
 613.05; 1240.878;   -0.128;    9.678;1241.00556
 613.63; 1260.978;    0.772;   -6.122;1260.20556
 614.21; 1374.978;   -2.328;   11.678;1377.30556
 614.78; 1418.878;    6.272;    3.778;1412.60556
 615.36; 1379.478;    2.772;    6.078;1376.70556
 615.94; 1452.078;    8.972;   -3.722;1443.10556
 616.51; 1517.178;   -0.828;    3.678;1518.00556
 617.09; 1602.278;    5.072;   -0.422;1597.20556
 617.67; 1676.878;    1.272;    9.478;1675.60556
 618.24; 1499.378;    7.872;    2.278;1491.50556
 618.82; 1621.478;    0.472;    6.478;1621.00556
 619.39; 1638.978;   11.572;   -5.322;1627.40556
 619.97; 1541.678;   -3.428;    6.678;1545.10556
 620.55; 1643.378;    8.772;   -1.122;1634.60556
 621.12; 1663.978;   -0.328;    6.778;1664.30556
 621.70; 1653.678;   12.572;   11.978;1641.10556
 622.28; 1648.078;   -4.728;    4.378;1652.80556
 622.85; 1676.178;    3.472;   -3.622;1672.70556
 623.43; 1633.278;   -8.028;    4.778;1641.30556
 624.00; 1609.678;    0.672;    7.278;1609.00556
 624.58; 1724.278;    5.572;    0.878;1718.70556
 625.15; 1804.078;   12.072;   10.578;1792.00556
 625.73; 1724.078;   -0.828;    5.778;1724.90556
 626.31; 1845.878;    6.772;   -1.222;1839.10556
 626.88; 1828.878;    0.572;    1.978;1828.30556
 627.46; 1834.178;    0.272;    3.278;1833.90556
 628.03; 1856.078;    1.072;    3.578;1855.00556
 628.61; 1864.078;    6.372;    9.178;1857.70556
 629.18; 1876.278;   -0.228;    7.278;1876.50556
 629.76; 2089.178;    1.772;   -1.922;2087.40556
 630.34; 2006.178;    1.172;    5.778;2005.00556
 630.91; 2097.978;    9.972;   -3.622;2088.00556
 631.49; 2168.778;    0.872;    5.078;2167.90556
 632.06; 2052.878;    9.972;    6.378;2042.90556
 632.64; 2315.678;   -1.628;    5.978;2317.30556
 633.21; 2336.278;    3.972;    3.778;2332.30556
 633.79; 2600.178;   -4.428;    5.278;2604.60556
 634.36; 2604.178;    2.872;    0.478;2601.30556
 634.94; 2598.278;   -0.028;    0.678;2598.30556
 635.51; 2958.378;   10.272;   11.178;2948.10556
 636.09; 3025.178;   -8.928;    6.778;3034.10556
 636.66; 3038.178;    6.472;    5.478;3031.70556
 637.24; 3230.678;   -5.828;    5.078;3236.50556
 637.81; 3317.778;   -0.428;   -1.022;3318.20556
 638.39; 3303.178;    7.572;    1.478;3295.60556
 638.96; 3557.378;    4.672;   10.078;3552.70556
 639.54; 3722.578;   -0.828;    0.178;3723.40556
 640.11; 3833.278;    7.772;   -2.322;3825.50556
 640.69; 3859.178;   -3.628;    6.378;3862.80556
 641.26; 4107.778;    7.072;    3.378;4100.70556
 641.84; 4306.478;   -0.828;    0.778;4307.30556
 642.41; 4439.878;    7.972;   10.678;4431.90556
 642.99; 4561.878;   -1.928;    3.178;4563.80556
 643.56; 4517.478;   -2.728;   -0.722;4520.20556
 644.14; 4829.578;   -0.228;    2.978;4829.80556
 644.71; 5151.478;   -1.328;   -3.622;5152.80556
 645.28; 4977.678;    1.672;    2.978;4976.00556
 645.86; 5177.878;    8.172;    4.878;5169.70556
 646.43; 5196.678;    2.872;    2.278;5193.80556
 647.01; 5165.678;    2.572;   -8.122;5163.10556
 647.58; 5290.178;   -8.128;    2.878;5298.30556
 648.16; 5129.978;    7.372;   -7.522;5122.60556
 648.73; 5342.178;    5.072;    4.478;5337.10556
 649.30; 5616.478;    5.572;   11.778;5610.90556
 649.88; 5397.078;    9.172;   12.478;5387.90556
 650.45; 5457.578;    1.772;    0.778;5455.80556
 651.03; 5761.778;   -3.428;   -3.222;5765.20556
 651.60; 5779.678;    2.372;   -1.422;5777.30556
 652.18; 5920.978;   12.872;    6.778;5908.10556
 652.75; 6017.078;    8.672;    9.378;6008.40556
 653.32; 6528.378;    0.172;    5.278;6528.20556
 653.90; 6673.178;    3.172;    1.978;6670.00556
 654.47; 6551.578;   -4.928;   -0.122;6556.50556
 655.04; 6991.278;    0.672;    5.278;6990.60556
 655.62; 7200.478;   -0.528;    3.778;7201.00556
 656.19; 7245.978;    7.172;   11.678;7238.80556
 656.77; 7497.078;    1.472;    2.078;7495.60556
 657.34; 7969.778;   -2.728;    2.778;7972.50556
 657.91; 7903.978;   -3.328;   -1.122;7907.30556
 658.49; 8194.478;   -0.528;    2.278;8195.00556
 659.06; 8481.378;    6.072;   -2.922;8475.30556
 659.63; 8386.978;   -4.028;    6.678;8391.00556
 660.21; 8695.678;    7.972;    4.778;8687.70556
 660.78; 8632.078;   -3.628;    6.578;8635.70556
 661.35; 8449.278;    1.572;  -11.222;8447.70556
 661.93; 8252.678;   -1.028;    4.678;8253.70556
 662.50; 8242.678;    6.272;   -0.422;8236.40556
 663.07; 8301.378;   -3.028;    9.478;8304.40556
 663.65; 8188.678;    4.472;    2.778;8184.20556
 664.22; 8106.378;    1.872;    0.078;8104.50556
 664.79; 7970.178;    3.772;   -3.022;7966.40556
 665.37; 7917.478;    0.572;    5.578;7916.90556
 665.94; 8059.078;    4.872;    0.878;8054.20556
 666.51; 8248.178;    2.572;   18.578;8245.60556
 667.09; 8317.678;    8.272;    5.878;8309.40556
 667.66; 8590.078;    0.172;    4.778;8589.90556
 668.23; 8409.678;   -4.428;    1.978;8414.10556
 668.80; 8994.978;    3.372;    4.778;8991.60556
 669.38; 9143.978;    5.472;   -1.022;9138.50556
 669.95; 9238.678;   -0.928;    0.378;9239.60556
 670.52; 9281.178;    0.372;    0.778;9280.80556
 671.10; 9354.978;    2.072;    1.578;9352.90556
 671.67; 9116.778;   -0.328;    3.478;9117.10556
 672.24; 9140.378;   -0.428;    0.178;9140.80556
 672.81; 9390.978;    5.372;    3.278;9385.60556
 673.39; 9225.278;   -3.628;    8.078;9228.90556
 673.96; 8953.478;    5.072;    0.678;8948.40556
 674.53; 9182.978;    4.072;    6.478;9178.90556
 675.10; 9058.978;    0.372;    0.178;9058.60556
 675.68; 8655.478;    3.872;   -1.522;8651.60556
 676.25; 9061.178;    1.372;    1.478;9059.80556
 676.82; 9228.478;    1.472;    9.278;9227.00556
 677.39; 9316.378;    5.672;   -3.522;9310.70556
 677.97; 9383.378;    2.972;    5.978;9380.40556
 678.54; 9439.678;    0.472;   -1.822;9439.20556
 679.11; 9951.778;   -0.728;   -3.822;9952.50556
 679.68;10599.978;   -1.028;   -5.522;10601.00556
 680.25;10787.378;    5.172;    7.278;10782.20556
 680.83;11237.678;   -3.528;   -0.422;11241.20556
 681.40;11510.278;    1.372;    2.078;11508.90556
 681.97;11684.878;   -0.428;   -1.422;11685.30556
 682.54;11778.178;    7.772;   -1.022;11770.40556
 683.11;12328.178;    7.872;   -0.622;12320.30556
 683.69;12632.578;    4.072;    1.178;12628.50556
 684.26;13057.478;    1.472;    0.478;13056.00556
 684.83;12758.778;    2.072;    5.778;12756.70556
 685.40;13151.378;   -5.428;    1.078;13156.80556
 685.97;13238.478;    6.172;    6.978;13232.30556
 686.54;12939.878;    3.972;   -6.322;12935.90556
 687.12;12685.978;    3.772;   14.778;12682.20556
 687.69;13335.078;   14.072;    4.478;13321.00556
 688.26;13761.578;    3.272;    2.978;13758.30556
 688.83;13308.778;    1.972;   -0.022;13306.80556
 689.40;13774.478;    5.372;    1.278;13769.10556
 689.97;13683.278;    2.872;   -8.422;13680.40556
 690.54;13793.378;    1.272;    9.078;13792.10556
 691.12;13647.778;    4.472;    5.478;13643.30556
 691.69;14135.378;    6.472;    5.278;14128.90556
 692.26;14982.978;   -3.528;   -5.122;14986.50556
 692.83;15565.878;    7.772;    4.478;15558.10556
 693.40;15046.478;    3.272;   -3.622;15043.20556
 693.97;14618.278;   -0.928;   13.978;14619.20556
 694.54;15189.678;    1.872;    4.878;15187.80556
 695.11;15074.078;   -1.628;    4.178;15075.70556
 695.68;14913.278;   -5.828;   -0.922;14919.10556
 696.26;14793.878;    4.372;    0.778;14789.50556
 696.83;14921.678;   -4.628;   -1.522;14926.30556
 697.40;14943.178;    0.472;    6.778;14942.70556
 697.97;14903.378;    5.772;   11.878;14897.60556
 698.54;14768.978;    2.572;    1.878;14766.40556
 699.11;14049.078;   -3.428;    1.878;14052.50556
 699.68;14408.378;    1.472;    1.878;14406.90556
 700.25;14459.178;   -1.628;   -2.322;14460.80556
 700.82;14636.078;   -5.028;    4.278;14641.10556
 701.39;14742.978;    5.672;    7.178;14737.30556
 701.96;15217.978;    0.772;    6.978;15217.20556
 702.53;15167.278;   -5.128;   -0.822;15172.40556
 703.10;15645.778;    2.572;   12.078;15643.20556
 703.67;15405.078;    1.772;   -1.422;15403.30556
 704.24;16403.678;   -9.728;    8.078;16413.40556
 704.82;16904.378;    1.872;    5.578;16902.50556
 705.39;17345.278;   -0.228;    0.978;17345.50556
 705.96;17682.678;   -5.928;    2.678;17688.60556
 706.53;17994.478;    9.672;   -4.522;17984.80556
 707.10;19076.378;    6.972;    0.578;19069.40556
 707.67;20193.978;    4.972;    4.378;20189.00556
 708.24;20991.978;    3.772;   13.078;20988.20556
 708.81;21277.978;    3.772;    4.278;21274.20556
 709.38;21097.978;   -3.728;    4.878;21101.70556
 709.95;21090.478;    6.172;   -4.922;21084.30556
 710.52;22049.278;   -1.728;    8.878;22051.00556
 711.09;22732.278;    2.072;   -1.422;22730.20556
 711.66;23426.278;    5.372;   10.478;23420.90556
 712.23;23741.578;    9.372;    3.178;23732.20556
 712.80;23827.178;   -1.728;    3.778;23828.90556
 713.37;24160.978;    4.672;   -5.822;24156.30556
 713.94;25171.578;    8.872;    8.678;25162.70556
 714.51;25633.378;    0.072;    4.278;25633.30556
 715.07;26291.778;    5.572;    3.478;26286.20556
 715.64;27282.978;    8.572;    6.878;27274.40556
 716.21;29183.878;    2.472;   -5.422;29181.40556
 716.78;29726.778;    6.472;    0.278;29720.30556
 717.35;31792.378;    1.972;    8.278;31790.40556
 717.92;32925.978;    5.472;   -1.222;32920.50556
 718.49;33878.378;   12.472;   14.178;33865.90556
 719.06;34566.878;    3.472;    4.878;34563.40556
 719.63;35198.278;   -4.728;   -1.222;35203.00556
 720.20;36839.878;    3.972;   -7.322;36835.90556
 720.77;37820.678;    3.772;   -0.022;37816.90556
 721.34;39608.978;    0.472;   -0.922;39608.50556
 721.91;40373.778;   10.972;   14.678;40362.80556
 722.48;40073.078;    5.872;    2.378;40067.20556
 723.05;39441.278;    6.772;   -2.622;39434.50556
 723.61;39370.278;    9.072;   -6.722;39361.20556
 724.18;38925.578;   -7.128;   11.578;38932.70556
 724.75;40168.478;    7.572;    9.678;40160.90556
 725.32;40950.678;    8.272;    5.378;40942.40556
 725.89;41364.678;   -0.228;    6.478;41364.90556
 726.46;40621.178;    2.172;   -0.122;40619.00556
 727.03;40573.778;    4.672;   -3.322;40569.10556
 727.60;41424.978;    4.772;   -8.522;41420.20556
 728.16;41651.178;    7.772;    5.978;41643.40556
 728.73;43187.278;   11.272;    6.678;43176.00556
 729.30;44849.578;    7.372;   10.178;44842.20556
 729.87;47655.578;    3.272;    1.178;47652.30556
 730.44;48690.878;    3.672;    0.778;48687.20556
 731.01;49315.778;   14.472;    7.078;49301.30556
 731.58;50146.078;    2.372;    5.178;50143.70556
 732.14;50389.678;    4.672;    6.778;50385.00556
 732.71;51680.078;   11.572;    7.278;51668.50556
 733.28;50972.178;   -1.428;    2.678;50973.60556
 733.85;52528.278;    5.472;   -2.522;52522.80556
 734.42;54284.478;    5.272;    6.178;54279.20556
 734.99;56122.778;    7.572;   -0.022;56115.20556
 735.55;57141.478;    2.372;    6.078;57139.10556
 736.12;57565.678;    0.572;    7.778;57565.10556
 736.69;57670.478;   -0.928;    3.978;57671.40556
 737.26;58141.978;    4.472;   -1.322;58137.50556
 737.83;57783.178;   -1.728;    8.078;57784.90556
 738.39;55660.078;    9.972;    0.878;55650.10556
 738.96;54031.678;    9.872;    7.378;54021.80556
 739.53;51906.478;    9.272;    6.678;51897.20556
 740.10;51211.878;    1.272;    8.178;51210.60556
 740.67;49324.178;    5.872;   -3.122;49318.30556
 741.23;47845.478;   -1.128;    7.378;47846.60556
 741.80;47075.578;   11.672;    0.078;47063.90556
 742.37;45005.178;    1.372;    1.178;45003.80556
 742.94;43979.978;    4.072;    7.878;43975.90556
 743.50;42945.378;   -1.428;   -0.922;42946.80556
 744.07;40738.478;    9.972;   -6.422;40728.50556
 744.64;38835.178;   -0.128;    0.378;38835.30556
 745.21;37902.878;    8.572;    1.578;37894.30556
 745.77;37004.678;    3.872;    6.878;37000.80556
 746.34;35413.178;   -2.128;    8.278;35415.30556
 746.91;33559.178;   -3.228;    1.878;33562.40556
 747.48;31767.578;   -0.728;    5.078;31768.30556
 748.04;30185.378;   -3.628;   -3.022;30189.00556
 748.61;28533.778;    8.172;    8.778;28525.60556
 749.18;27369.678;   -0.228;   11.178;27369.90556
 749.74;25957.678;    2.772;   -4.022;25954.90556
 750.31;24314.878;   -0.828;    5.278;24315.70556
 750.88;23571.378;    7.372;    8.078;23564.00556
 751.45;22573.278;   -7.528;   -6.122;22580.80556
 752.01;21729.278;   10.072;    0.578;21719.20556
 752.58;21084.578;   -0.228;    3.678;21084.80556
 753.15;20036.678;    1.272;    2.278;20035.40556
 753.71;18912.978;  -10.728;    3.678;18923.70556
 754.28;18443.278;   10.272;    3.478;18433.00556
 754.85;18130.778;   -6.828;  -10.322;18137.60556
 755.41;17823.878;    7.872;    9.078;17816.00556
 755.98;18128.978;    2.172;    3.978;18126.80556
 756.55;18366.478;    4.672;    5.178;18361.80556
 757.11;18681.778;   -3.528;   -3.722;18685.30556
 757.68;19058.878;    4.472;    3.678;19054.40556
 758.25;20373.978;    3.772;   -5.122;20370.20556
 758.81;20494.778;   -0.328;    2.878;20495.10556
 759.38;20525.478;   -5.728;    8.678;20531.20556
 759.95;20434.678;    4.072;    3.178;20430.60556
 760.51;20568.578;    0.772;    3.078;20567.80556
 761.08;19595.778;    6.272;    4.278;19589.50556
 761.64;17827.478;   -1.428;   -9.522;17828.90556
 762.21;15991.478;    7.272;    2.178;15984.20556
 762.78;14572.278;    2.472;    7.078;14569.80556
 763.34;13615.278;   -0.928;    4.078;13616.20556
 763.91;12394.578;   -1.828;    8.278;12396.40556
 764.47;12588.978;   -0.628;    9.278;12589.60556
 765.04;13143.178;   -1.728;   -5.222;13144.90556
 765.61;14164.578;    7.872;    1.578;14156.70556
 766.17;14920.878;   -0.328;    5.678;14921.20556
 766.74;14851.878;    1.972;    3.578;14849.90556
 767.30;14651.478;   -1.428;   -3.422;14652.90556
 767.87;13375.078;    6.272;    7.378;13368.80556
 768.44;12569.078;   -5.428;   -4.122;12574.50556
 769.00;12927.478;    7.172;   -1.522;12920.30556
 769.57;13083.678;   -4.128;    6.178;13087.80556
 770.13;13822.478;    1.772;    1.478;13820.70556
 770.70;13800.678;    6.772;    1.678;13793.90556
 771.26;14127.778;    7.472;    1.178;14120.30556
 771.83;13957.378;   -0.328;   -1.422;13957.70556
 772.39;13624.878;    5.972;   -4.922;13618.90556
 772.96;13240.778;    1.572;    6.378;13239.20556
 773.53;13044.678;    6.672;   -1.022;13038.00556
 774.09;12070.578;    2.572;   -0.522;12068.00556
 774.66;10750.878;    7.172;    5.278;10743.70556
 775.22; 9100.278;   -2.728;    5.978;9103.00556
 775.79; 7542.978;   14.972;   -0.822;7528.00556
 776.35; 6704.678;    0.572;    4.478;6704.10556
 776.92; 6417.078;   -0.828;    8.178;6417.90556
 777.48; 6321.278;   -4.528;    1.278;6325.80556
 778.05; 6845.978;    7.172;    9.878;6838.80556
 778.61; 7092.478;   -7.228;    5.778;7099.70556
 779.18; 7682.678;   13.772;   -9.422;7668.90556
 779.74; 8515.078;   -3.228;    9.178;8518.30556
 780.31; 9915.178;    1.872;    2.278;9913.30556
 780.87;11180.378;   -0.928;    2.078;11181.30556
 781.44;12536.178;    6.672;    2.278;12529.50556
 782.00;13015.778;   -0.928;    6.978;13016.70556
 782.57;13544.778;   14.272;   -5.822;13530.50556
 783.13;14247.578;   -7.328;    5.178;14254.90556
 783.69;13997.278;    4.272;    3.578;13993.00556
 784.26;13518.878;   -4.628;    2.678;13523.50556
 784.82;13107.778;    6.272;   -2.422;13101.50556
 785.39;12463.178;   -3.828;    3.378;12467.00556
 785.95;11904.078;    8.272;   -2.222;11895.80556
 786.52;11763.478;   -1.328;    5.778;11764.80556
 787.08;11929.678;    0.072;    3.278;11929.60556
 787.65;11357.578;   -6.528;    4.778;11364.10556
 788.21;10656.778;    4.072;   -0.722;10652.70556
 788.77; 9206.378;   -3.328;    5.378;9209.70556
 789.34; 7808.178;    8.772;   -7.622;7799.40556
 789.90; 6821.078;    0.772;    7.278;6820.30556
 790.47; 6846.478;    5.472;   -1.022;6841.00556
 791.03; 6717.178;    0.472;    2.578;6716.70556
 791.59; 5978.378;    7.772;    6.678;5970.60556
 792.16; 5582.678;   -6.728;    5.678;5589.40556
 792.72; 5255.878;   13.572;   -1.522;5242.30556
 793.29; 5258.278;   -1.628;   16.278;5259.90556
 793.85; 5233.878;    3.172;   -0.322;5230.70556
 794.41; 4904.178;   -1.728;    7.078;4905.90556
 794.98; 4610.178;    5.672;   -8.122;4604.50556
 795.54; 4587.378;   -1.928;    7.878;4589.30556
 796.11; 4493.878;    4.072;   -1.022;4489.80556
 796.67; 4780.278;   -1.828;   12.478;4782.10556
 797.23; 5281.978;    0.872;    1.178;5281.10556
 797.80; 5192.278;   -3.028;    2.378;5195.30556
 798.36; 5409.378;    3.772;    2.078;5405.60556
 798.92; 5482.678;    0.272;    4.178;5482.40556
 799.49; 5904.478;    7.172;   -1.322;5897.30556
 800.05; 6185.878;    4.272;    8.578;6181.60556
 800.61; 5557.078;    1.072;    1.878;5556.00556
 801.18; 5601.678;   -1.928;    2.078;5603.60556
 801.74; 5298.778;    2.772;    0.778;5296.00556
 802.30; 5711.078;    1.572;    0.778;5709.50556
 802.87; 5682.278;    2.672;  -10.822;5679.60556
 803.43; 5726.378;    2.572;    8.978;5723.80556
 803.99; 5337.078;   -1.528;    1.778;5338.60556
 804.55; 4997.978;    1.072;    5.878;4996.90556
 805.12; 4990.878;    2.972;   -0.122;4987.90556
 805.68; 5082.678;   -0.528;   11.778;5083.20556
 806.24; 4818.578;   13.772;   -9.422;4804.80556
 806.81; 4751.078;   -0.228;   11.778;4751.30556
 807.37; 4788.678;   -6.628;    5.378;4795.30556
 807.93; 4780.278;    4.172;    1.578;4776.10556
 808.49; 4736.078;   13.072;    1.878;4723.00556
 809.06; 5200.478;    6.972;    5.378;5193.50556
 809.62; 5271.578;    9.872;   -7.122;5261.70556
 810.18; 5466.978;    3.972;   16.978;5463.00556
 810.75; 5726.878;    1.472;    5.978;5725.40556
 811.31; 5841.878;    3.472;    3.178;5838.40556
 811.87; 6167.778;    0.072;    0.678;6167.70556
 812.43; 6153.478;   -0.428;    4.078;6153.90556
 813.00; 6333.578;    8.472;   -3.922;6325.10556
 813.56; 6553.178;    0.972;   11.378;6552.20556
 814.12; 6750.078;    2.572;    6.778;6747.50556
 814.68; 6914.778;   -2.228;   11.078;6917.00556
 815.24; 7396.378;   12.472;    0.678;7383.90556
 815.81; 7877.378;    1.472;    0.778;7875.90556
 816.37; 8106.178;    8.572;    0.778;8097.60556
 816.93; 8863.678;   -1.528;    9.878;8865.20556
 817.49; 9157.878;   -2.528;    1.078;9160.40556
 818.05; 9082.578;   -0.328;    1.778;9082.90556
 818.62; 9546.178;    4.972;    1.078;9541.20556
 819.18; 9832.778;    0.872;    5.678;9831.90556
 819.74; 9640.778;    6.572;   -5.822;9634.20556
 820.30;10193.078;   -1.528;   10.178;10194.60556
 820.86;10481.978;   -0.228;    0.878;10482.20556
 821.43;10368.378;    1.072;   10.378;10367.30556
 821.99;10517.678;    0.772;   -2.122;10516.90556
 822.55;10290.478;   -4.628;    0.878;10295.10556
 823.11; 9848.578;    7.772;   -2.622;9840.80556
 823.67; 9947.078;   -2.928;    6.478;9950.00556
 824.23; 9228.578;    4.772;    3.078;9223.80556
 824.79; 9096.778;    0.972;   12.478;9095.80556
 825.36; 8673.678;    5.472;   -0.122;8668.20556
 825.92; 8466.978;    5.772;    3.278;8461.20556
 826.48; 8034.978;    5.472;    0.878;8029.50556
 827.04; 7759.978;    1.972;    8.378;7758.00556
 827.60; 7255.178;    0.772;    2.278;7254.40556
 828.16; 7341.078;    6.572;    6.378;7334.50556
 828.72; 6709.178;    8.872;    3.278;6700.30556
 829.29; 6266.478;   -1.528;   -3.222;6268.00556
 829.85; 6183.678;    6.272;   -0.322;6177.40556
 830.41; 5884.978;   -1.628;    4.778;5886.60556
 830.97; 5806.878;    0.572;   10.178;5806.30556
 831.53; 5635.678;   -0.528;    1.778;5636.20556
 832.09; 5471.178;    1.172;    2.378;5470.00556
 832.65; 5472.478;    4.172;   -2.722;5468.30556
 833.21; 5499.578;    2.572;   -1.422;5497.00556
 833.77; 5367.178;   -1.028;    6.378;5368.20556
 834.33; 5542.178;    1.572;    7.678;5540.60556
 834.89; 5436.278;    3.272;    5.578;5433.00556
 835.45; 5401.778;    1.772;    1.378;5400.00556
 836.01; 5667.978;   -4.428;    5.978;5672.40556
 836.58; 5677.478;   12.472;   -1.222;5665.00556
 837.14; 5725.978;    2.072;    6.478;5723.90556
 837.70; 5930.378;   -4.728;    4.178;5935.10556
 838.26; 6233.378;    2.672;    3.378;6230.70556
 838.82; 5943.378;    1.172;   -1.422;5942.20556
 839.38; 6365.278;    0.372;   -2.122;6364.90556
 839.94; 6808.178;   10.472;   -1.022;6797.70556
 840.50; 6824.078;   10.572;   10.278;6813.50556
 841.06; 7237.778;    1.172;   10.078;7236.60556
 841.62; 7512.078;   -3.628;    2.878;7515.70556
 842.18; 7924.978;    2.372;    0.278;7922.60556
 842.74; 8264.178;    1.772;    1.278;8262.40556
 843.30; 8412.578;    3.572;   -0.222;8409.00556
 843.86; 8505.778;    4.872;    8.078;8500.90556
 844.42; 8853.778;    5.072;   16.978;8848.70556
 844.98; 9170.978;   -1.728;    6.678;9172.70556
 845.54; 9344.678;   -0.228;   -4.622;9344.90556
 846.10; 9634.978;    4.872;   -4.422;9630.10556
 846.66; 9956.678;    3.472;   -5.422;9953.20556
 847.22;10287.278;   -0.428;    9.778;10287.70556
 847.78;10464.778;    2.672;    0.378;10462.10556
 848.34;10416.778;   -0.928;   10.078;10417.70556
 848.90;10890.778;    4.072;   -0.822;10886.70556
 849.46;10972.578;    6.572;    2.878;10966.00556
 850.02;10789.978;   -2.428;    1.778;10792.40556
 850.57;10911.078;    6.272;    8.378;10904.80556
 851.13;10908.178;   -0.628;    5.278;10908.80556
 851.69;10717.478;    5.572;    7.078;10711.90556
 852.25;11128.778;    3.672;   -2.822;11125.10556
 852.81;11613.278;    1.472;    2.878;11611.80556
 853.37;11466.078;    8.472;    0.178;11457.60556
 853.93;11483.478;    4.772;    4.278;11478.70556
 854.49;11448.078;   -0.728;   10.778;11448.80556
 855.05;11321.378;    3.072;    7.378;11318.30556
 855.61;11638.078;    5.072;   -8.122;11633.00556
 856.17;11597.978;    2.372;    1.578;11595.60556
 856.73;11709.178;    3.372;   -1.522;11705.80556
 857.28;11376.378;    0.772;    6.478;11375.60556
 857.84;11034.478;    1.372;    8.478;11033.10556
 858.40;10791.978;   10.872;   12.378;10781.10556
 858.96;11131.878;    0.672;   -3.522;11131.20556
 859.52;11357.978;    1.872;    2.778;11356.10556
 860.08;11379.978;    1.472;   -4.622;11378.50556
 860.64;11526.478;   -1.928;    5.878;11528.40556
 861.20;11424.078;   -0.828;   -0.222;11424.90556
 861.75;11428.378;    6.172;    5.678;11422.20556
 862.31;11385.178;    6.972;   -3.322;11378.20556
 862.87;11691.078;   -5.128;    8.378;11696.20556
 863.43;11102.578;    4.872;   -5.622;11097.70556
 863.99;11596.278;   -1.328;    4.678;11597.60556
 864.55;11116.878;    0.872;   -0.422;11116.00556
 865.10;11200.478;    9.572;    6.578;11190.90556
 865.66;11124.978;   -3.628;   -1.522;11128.60556
 866.22;11200.078;    7.172;    3.078;11192.90556
 866.78;11388.578;    5.872;   -6.522;11382.70556
 867.34;10982.678;   -0.328;    9.178;10983.00556
 867.90;11105.378;   -0.428;    4.778;11105.80556
 868.45;11686.878;    4.172;    4.578;11682.70556
 869.01;11604.578;    3.372;   10.078;11601.20556
 869.57;11505.878;   10.172;   -4.222;11495.70556
 870.13;11712.478;    0.672;   -4.922;11711.80556
 870.69;11592.978;    3.172;    4.478;11589.80556
 871.24;11667.678;    1.372;    3.778;11666.30556
 871.80;11369.878;    0.772;    3.478;11369.10556
 872.36;10995.578;    0.672;    3.778;10994.90556
 872.92;11080.978;    6.872;    2.178;11074.10556
 873.47;10774.478;   -0.028;  -10.622;10774.50556
 874.03;10791.178;    0.972;    2.878;10790.20556
 874.59;11176.278;    2.972;    6.978;11173.30556
 875.15;11082.378;    4.972;    9.978;11077.40556
 875.70;10645.578;    8.572;    3.678;10637.00556
 876.26;10416.678;    7.372;    3.778;10409.30556
 876.82;10123.578;   -1.528;   -1.022;10125.10556
 877.38;10051.278;   -1.428;   13.578;10052.70556
 877.93; 9625.478;    3.972;    6.978;9621.50556
 878.49; 9382.178;    1.772;   10.078;9380.40556
 879.05; 9282.478;   -1.228;    4.478;9283.70556
 879.60; 9139.678;    4.772;    1.078;9134.90556
 880.16; 9117.078;   -1.728;  -15.722;9118.80556
 880.72; 8932.278;   -1.828;    9.478;8934.10556
 881.28; 8561.278;    1.772;    1.278;8559.50556
 881.83; 8632.878;    2.672;    5.778;8630.20556
 882.39; 8376.378;    1.372;   -2.922;8375.00556
 882.95; 8106.378;    5.472;    2.178;8100.90556
 883.50; 8006.578;   -0.528;   -4.622;8007.10556
 884.06; 7802.378;   -3.028;    7.578;7805.40556
 884.62; 7386.578;   -4.028;    7.278;7390.60556
 885.17; 6944.278;    5.372;    8.178;6938.90556
 885.73; 7273.378;    2.072;    7.878;7271.30556
 886.29; 7198.378;    6.972;    3.078;7191.40556
 886.84; 7077.078;    2.972;    4.578;7074.10556
 887.40; 6529.078;   -2.128;    2.178;6531.20556
 887.96; 6477.178;    1.472;    5.378;6475.70556
 888.51; 6494.778;    1.472;    7.778;6493.30556
 889.07; 6399.578;    7.572;    1.978;6392.00556
 889.63; 6410.678;    5.072;   -1.522;6405.60556
 890.18; 6163.178;    2.672;   -3.422;6160.50556
 890.74; 5897.178;   -2.228;   -4.722;5899.40556
 891.29; 5929.378;    8.472;    5.078;5920.90556
 891.85; 6028.978;    4.272;   12.078;6024.70556
 892.41; 5941.278;    5.572;    7.778;5935.70556
 892.96; 5707.178;    2.872;   -2.222;5704.30556
 893.52; 5726.978;   -0.728;    7.778;5727.70556
 894.07; 5391.578;   -0.528;   -0.122;5392.10556
 894.63; 5329.278;    5.872;    9.178;5323.40556
 895.19; 5373.678;    4.972;   10.678;5368.70556
 895.74; 5168.678;    5.872;    5.778;5162.80556
 896.30; 5144.978;    0.072;   -0.722;5144.90556
 896.85; 5016.978;    5.172;   -4.322;5011.80556
 897.41; 5244.878;    5.572;    4.178;5239.30556
 897.96; 5154.778;   -2.428;    8.278;5157.20556
 898.52; 5120.978;    1.872;   10.378;5119.10556
 899.08; 5067.778;    6.472;    6.178;5061.30556
 899.63; 5164.278;   -1.728;   -0.122;5166.00556
 900.19; 5069.178;    5.972;  -11.122;5063.20556
 900.74; 4845.478;   -5.228;    6.178;4850.70556
 901.30; 4695.878;    5.772;    5.978;4690.10556
 901.85; 4952.878;    5.672;   12.078;4947.20556
 902.41; 4665.778;    1.072;    0.778;4664.70556
 902.96; 4699.578;    0.672;    3.678;4698.90556
 903.52; 4399.678;    6.472;   -5.622;4393.20556
 904.07; 4688.178;   -1.728;   -2.922;4689.90556
 904.63; 4704.678;   16.272;   11.078;4688.40556
 905.18; 4622.578;    1.672;    2.678;4620.90556
 905.74; 4495.378;   -2.128;   12.678;4497.50556
 906.29; 4601.478;    1.372;    1.678;4600.10556
 906.85; 4687.878;    2.672;    3.978;4685.20556
 907.40; 4618.278;   -0.428;   -5.522;4618.70556
 907.96; 4333.678;    1.872;   10.078;4331.80556
 908.51; 4170.278;   -3.928;    2.078;4174.20556
 909.07; 3875.278;    0.072;    4.578;3875.20556
 909.62; 4100.378;   -4.228;   -1.222;4104.60556
 910.18; 3831.778;   -2.228;   -6.422;3834.00556
 910.73; 3738.178;   -2.028;    0.078;3740.20556
 911.29; 3790.078;    6.972;    8.778;3783.10556
 911.84; 3616.678;    4.372;   -0.022;3612.30556
 912.40; 3666.978;   -0.028;    2.078;3667.00556
 912.95; 3467.478;    5.172;   -0.822;3462.30556
 913.50; 3461.378;   -2.828;   -5.322;3464.20556
 914.06; 3343.278;   -3.428;    0.378;3346.70556
 914.61; 3134.878;    2.772;    1.978;3132.10556
 915.17; 3173.678;    2.572;    9.278;3171.10556
 915.72; 3078.378;   -2.528;    3.078;3080.90556
 916.28; 2807.178;   -0.128;    2.678;2807.30556
 916.83; 2862.278;    3.272;   -1.422;2859.00556
 917.38; 2832.278;   -4.528;  -10.722;2836.80556
 917.94; 2765.378;   11.872;    0.978;2753.50556
 918.49; 2563.978;   -2.228;    9.978;2566.20556
 919.05; 2722.478;    1.072;    9.678;2721.40556
 919.60; 2544.078;   -0.428;   -4.222;2544.50556
 920.15; 2418.978;    4.572;   -0.622;2414.40556
 920.71; 2439.578;    0.072;   -1.922;2439.50556
 921.26; 2375.978;    2.572;    2.878;2373.40556
 921.81; 2533.278;    3.972;    5.278;2529.30556
 922.37; 2417.678;    0.572;    3.678;2417.10556
 922.92; 2371.478;    7.972;    4.078;2363.50556
 923.47; 2255.678;   -1.928;   -0.422;2257.60556
 924.03; 2228.678;    1.472;   -3.222;2227.20556
 924.58; 2124.578;    4.672;   -0.822;2119.90556
 925.13; 2160.778;    0.272;   11.978;2160.50556
 925.69; 2094.078;   -1.728;    1.678;2095.80556
 926.24; 2040.678;    9.472;   -4.122;2031.20556
 926.79; 2000.378;    5.072;    0.578;1995.30556
 927.35; 2000.278;    0.472;    3.978;1999.80556
 927.90; 1846.278;    8.572;    3.278;1837.70556
 928.45; 1897.278;   -1.828;    7.078;1899.10556
 929.01; 1846.178;    2.972;    7.878;1843.20556
 929.56; 1793.078;    1.272;    2.178;1791.80556
 930.11; 1770.778;    5.472;   -0.522;1765.30556
 930.67; 1773.278;    5.372;    1.178;1767.90556
 931.22; 1814.978;    1.072;    3.778;1813.90556
 931.77; 1811.878;    2.772;   10.578;1809.10556
 932.32; 1708.378;    6.672;    2.578;1701.70556
 932.88; 1695.678;    2.272;    4.378;1693.40556
 933.43; 1594.878;    3.672;   -1.322;1591.20556
 933.98; 1594.278;    2.272;   -8.722;1592.00556
 934.54; 1570.478;    5.572;    0.578;1564.90556
 935.09; 1439.078;   -0.128;    1.578;1439.20556
 935.64; 1488.378;   -0.628;    3.278;1489.00556
 936.19; 1503.378;    7.372;    4.678;1496.00556
 936.75; 1495.278;   -2.228;   -7.522;1497.50556
 937.30; 1290.878;   -4.328;    2.778;1295.20556
 937.85; 1392.578;   10.272;    2.678;1382.30556
 938.40; 1354.478;    3.272;    4.078;1351.20556
 938.95; 1347.978;   -1.928;    7.778;1349.90556
 939.51; 1334.178;    0.872;    2.878;1333.30556
 940.06; 1342.778;    4.372;    0.178;1338.40556
 940.61; 1314.278;   -1.228;   -0.122;1315.50556
 941.16; 1171.278;    5.172;    1.478;1166.10556
 941.72; 1138.978;    3.572;    2.678;1135.40556
 942.27; 1135.078;    2.972;   12.378;1132.10556
 942.82; 1116.678;    1.272;   -4.922;1115.40556
 943.37; 1026.878;    3.672;   -4.422;1023.20556
 943.92;  996.478;    2.372;    3.278;994.10556
 944.47;  961.678;    3.972;   -0.622;957.70556
 945.03;  991.678;    8.672;    9.778;983.00556
 945.58;  980.378;    0.372;    9.278;980.00556
 946.13;  880.278;    9.672;    2.678;870.60556
 946.68;  922.178;    2.172;  -10.222;920.00556
 947.23;  913.778;    0.472;    2.678;913.30556
 947.78;  883.278;    2.972;   -3.822;880.30556
 948.34;  790.678;    2.872;   12.878;787.80556
 948.89;  795.978;   -3.628;    1.878;799.60556
 949.44;  798.278;    8.972;   -1.522;789.30556
 949.99;  796.178;    0.172;    1.978;796.00556
 950.54;  791.778;    0.572;    1.178;791.20556
 951.09;  765.878;    3.872;   -2.022;762.00556
 951.64;  748.978;    2.672;    3.178;746.30556
 952.19;  762.078;    4.572;    7.878;757.50556
 952.75;  727.078;    9.772;   -5.922;717.30556
 953.30;  749.278;    4.172;   -5.022;745.10556
 953.85;  660.778;   -2.128;    1.278;662.90556
 954.40;  631.378;    0.872;   -0.722;630.50556
 954.95;  706.178;    7.772;   16.178;698.40556
 955.50;  665.678;    3.172;    6.278;662.50556
 956.05;  640.778;    7.472;    0.278;633.30556
 956.60;  631.778;   -0.028;   -2.922;631.80556
 957.15;  636.378;    4.072;   10.178;632.30556
 957.70;  611.678;    2.872;   -5.422;608.80556
 958.25;  594.778;    1.572;    9.078;593.20556
 958.80;  596.678;   -4.428;    1.178;601.10556
 959.35;  576.178;    7.572;    9.578;568.60556
 959.91;  538.978;   -1.428;   -3.322;540.40556
 960.46;  531.878;    3.372;    6.878;528.50556
 961.01;  520.978;    1.372;   -2.022;519.60556
 961.56;  560.778;    4.472;   17.078;556.30556
 962.11;  560.278;   -1.828;    9.878;562.10556
 962.66;  501.178;    0.272;    3.278;500.90556
 963.21;  507.778;    1.972;   -3.322;505.80556
 963.76;  494.778;    0.372;    9.978;494.40556
 964.31;  491.678;    5.472;    2.478;486.20556
 964.86;  452.778;    4.572;   11.278;448.20556
 965.41;  476.878;   -5.228;    3.578;482.10556
 965.96;  438.078;    2.772;   -0.422;435.30556
 966.51;  449.078;   -1.828;   -3.422;450.90556
 967.06;  442.278;    4.072;   -0.622;438.20556
 967.61;  411.878;    3.972;   -5.222;407.90556
 968.16;  420.978;    6.672;    5.778;414.30556
 968.71;  432.578;   -0.328;    1.078;432.90556
 969.26;  372.878;    0.772;    4.278;372.10556
 969.81;  354.478;   -0.728;   -6.322;355.20556
 970.35;  375.178;   -2.528;    6.978;377.70556
 970.90;  327.278;    5.372;   -6.422;321.90556
 971.45;  329.678;   10.772;    4.578;318.90556
 972.00;  310.978;   -1.128;    7.978;312.10556
 972.55;  302.178;    2.472;    2.878;299.70556
 973.10;  318.378;   -2.728;   -9.022;321.10556
 973.65;  276.978;   -2.428;    6.178;279.40556
 974.20;  243.178;    4.872;   -6.622;238.30556
 974.75;  301.778;    8.172;    8.278;293.60556
 975.30;  274.178;   -0.828;   10.178;275.00556
 975.85;  256.678;    3.872;    9.678;252.80556
 976.40;  266.278;    0.872;   -9.022;265.40556
 976.95;  206.978;    0.672;    6.178;206.30556
 977.49;  226.278;    0.672;    2.378;225.60556
 978.04;  223.378;    7.172;   13.078;216.20556
 978.59;  226.278;    0.272;    8.678;226.00556
 979.14;  223.578;    5.972;    9.178;217.60556
 979.69;  213.178;    3.472;   -4.622;209.70556
 980.24;  151.078;    1.372;    5.578;149.70556
 980.79;  232.478;    1.672;   -4.322;230.80556
 981.34;  218.178;    4.272;   -1.322;213.90556
 981.88;  209.278;   -1.128;    2.078;210.40556
 982.43;  185.178;    1.472;    6.278;183.70556
 982.98;  163.178;   -1.928;   -7.922;165.10556
 983.53;  190.978;    2.572;   13.478;188.40556
 984.08;  165.578;    3.872;   -4.422;161.70556
 984.63;  177.078;    6.772;   13.078;170.30556
 985.17;  193.678;    1.972;    5.578;191.70556
 985.72;  185.578;    7.972;    9.178;177.60556
 986.27;  146.978;    0.472;  -10.922;146.50556
 986.82;  145.978;   -2.828;    8.478;148.80556
 987.37;  159.978;    5.272;   -4.222;154.70556
 987.92;  147.678;   12.272;    6.478;135.40556
 988.46;  163.278;    0.372;    8.678;162.90556
 989.01;  144.978;    3.172;    9.178;141.80556
 989.56;  149.778;   -7.728;   -2.722;157.50556
 990.11;  154.278;    8.572;    6.078;145.70556
 990.66;  128.878;    4.872;   -3.722;124.00556
 991.20;  126.078;    9.972;    7.378;116.10556
 991.75;  154.778;   -0.828;    5.278;155.60556
 992.30;  143.178;   10.372;    0.878;132.80556
 992.85;  134.878;   -2.628;   -5.522;137.50556
 993.39;  130.178;    5.672;    6.478;124.50556
 993.94;  113.378;    4.772;   -1.722;108.60556
 994.49;  120.478;    6.072;   12.578;114.40556
 995.04;  179.978;   -0.328;    7.578;180.30556
 995.58;  151.278;    3.772;    6.178;147.50556
 996.13;  116.578;   -0.328;    2.278;116.90556
 996.68;  108.478;   -1.428;   -1.822;109.90556
 997.22;  107.078;   -3.528;    2.078;110.60556
 997.77;  115.178;    8.372;   10.578;106.80556
 998.32;  107.278;    3.372;    5.378;103.90556
 998.87;  107.478;   -7.928;    1.278;115.40556
 999.41;  110.378;    0.372;   -8.222;110.00556
 999.96;  107.678;    4.472;    3.378;103.20556
1000.51;   96.478;    6.072;    5.578;90.40556
1001.05;  109.178;    7.372;    6.178;101.80556
1001.60;  120.078;   -5.928;    5.178;126.00556
1002.15;  110.578;   -0.928;    1.578;111.50556
1002.69;   97.878;   -2.428;   -6.122;100.30556
1003.24;   95.478;    2.372;    5.678;93.10556
1003.79;   93.478;    2.672;    2.578;90.80556
1004.33;   79.878;    1.972;    4.978;77.90556
1004.88;  113.578;   -4.328;    9.678;117.90556
1005.43;  101.578;    4.572;    9.178;97.00556
1005.97;   92.778;   -2.728;   -5.222;95.50556
1006.52;   82.978;    1.372;    0.078;81.60556
1007.07;   66.378;    6.472;   -0.322;59.90556
1007.61;   75.478;    3.672;    0.078;71.80556
1008.16;  101.078;    1.672;   11.478;99.40556
1008.71;   88.678;   -1.828;    6.378;90.50556
1009.25;   88.578;    0.372;   -2.922;88.20556
1009.80;   84.378;    7.172;    2.678;77.20556
1010.34;   99.978;    8.072;    7.378;91.90556
1010.89;   66.178;    0.472;    5.778;65.70556
1011.44;   84.578;    1.072;    5.978;83.50556
1011.98;   76.978;    5.772;    7.578;71.20556
1012.53;   77.778;    0.272;   -4.322;77.50556
1013.07;   73.978;   -1.128;  -15.022;75.10556
1013.62;   43.578;    5.472;    4.578;38.10556
1014.16;   66.678;    9.272;   -2.622;57.40556
1014.71;   71.278;   -0.328;    8.878;71.60556
1015.26;   78.578;   -3.228;    4.478;81.80556
1015.80;   67.878;   -1.728;   -4.022;69.60556
1016.35;   58.378;   -4.328;   -1.122;62.70556
1016.89;   70.278;    6.972;    3.578;63.30556
1017.44;   39.478;   10.572;    1.578;28.90556
1017.98;   69.678;   -2.028;    8.978;71.70556
1018.53;   75.178;   -3.028;    5.778;78.20556
1019.07;   65.778;   -6.428;   -7.322;72.20556
1019.62;   54.878;    1.272;   -3.722;53.60556
1020.16;   68.278;    1.772;   -0.022;66.50556
1020.71;   40.878;    6.572;    5.878;34.30556
1021.25;   56.878;    2.572;    3.978;54.30556
1021.80;   63.678;   -0.228;    4.778;63.90556
1022.34;   61.878;   -0.628;   -2.622;62.50556
1022.89;   55.978;    1.372;   -1.322;54.60556
1023.43;   58.778;    8.572;    4.878;50.20556
1023.98;   55.578;   10.372;    7.578;45.20556
1024.52;   39.178;   -4.928;   10.278;44.10556
1025.07;   72.378;    0.472;    5.978;71.90556
1025.61;   54.978;   -8.828;   -2.622;63.80556
1026.16;   42.078;    2.672;   -6.922;39.40556
1026.70;   58.678;    6.472;    1.078;52.20556
1027.25;   46.978;    3.372;   -5.322;43.60556
1027.79;   49.978;    3.072;    3.578;46.90556
1028.34;   57.878;    0.872;    6.178;57.00556
1028.88;   51.478;   -5.328;   -5.722;56.80556
1029.43;   48.178;    5.772;   -1.022;42.40556
1029.97;   56.278;    2.172;    3.878;54.10556
1030.51;   37.278;   12.872;    4.378;24.40556
1031.06;   39.678;   -1.928;    5.278;41.60556
1031.60;   54.178;   -4.428;    4.278;58.60556
1032.15;   53.878;   -2.128;   -2.022;56.00556
1032.69;   45.078;    7.472;    0.178;37.60556
1033.23;   46.178;   10.572;    3.678;35.60556
1033.78;   45.178;    3.872;    1.378;41.30556
1034.32;   38.978;   -1.128;    0.078;40.10556
1034.87;   55.478;   -3.928;   11.478;59.40556
1035.41;   56.678;    4.072;    1.278;52.60556
1035.95;   41.678;    3.272;   -6.422;38.40556
1036.50;   48.578;    4.972;    5.778;43.60556
1037.04;   44.178;    6.172;    4.278;38.00556
1037.59;   42.778;    1.072;    3.578;41.70556
1038.13;   51.878;    0.472;   16.578;51.40556
1038.67;   49.278;    0.272;    1.078;49.00556
1039.22;   49.978;    7.872;   -1.322;42.10556
1039.76;   44.478;   -0.928;    8.878;45.40556
1040.30;   33.378;   11.072;    3.278;22.30556
1040.85;   55.278;   -0.228;    6.378;55.50556
1041.39;   51.378;    1.372;   13.978;50.00556
1041.93;   41.778;   -3.428;   -2.722;45.20556
1042.48;   37.978;    1.472;   -2.122;36.50556
1043.02;   50.878;    5.372;   12.078;45.50556
1043.56;   39.478;    3.272;    2.378;36.20556
1044.10;   42.178;   -4.128;    7.578;46.30556
1044.65;   46.978;   -1.928;   15.478;48.90556
1045.19;   43.978;   -6.728;   -7.622;50.70556
1045.73;   43.278;    3.272;   -7.022;40.00556
1046.28;   24.878;   12.672;   11.078;12.20556
1046.82;   38.078;    3.372;    0.578;34.70556
1047.36;   39.878;   -7.928;    2.678;47.80556
1047.90;   54.478;    5.072;   13.678;49.40556
1048.45;   49.878;   -6.628;   -1.322;56.50556
1048.99;   37.078;    6.172;  -12.622;30.90556
1049.53;   41.278;    5.472;   -2.022;35.80556
1050.07;   39.678;    8.772;    2.378;30.90556
1050.62;   34.078;    5.172;    5.378;28.90556
1051.16;   24.778;    0.072;    8.078;24.70556
1051.70;   51.578;   -2.328;    0.878;53.90556
1052.24;   39.078;    6.272;   -3.222;32.80556
1052.79;   40.478;    4.172;    4.678;36.30556
1053.33;   42.478;    0.572;    4.878;41.90556
1053.87;   29.178;    1.772;    0.578;27.40556
1054.41;   38.478;    1.772;    8.278;36.70556
1054.96;   35.878;    1.272;   -0.322;34.60556
1055.50;   34.078;    6.572;    0.878;27.50556
1056.04;   40.178;   -2.128;    4.878;42.30556
1056.58;   46.878;    7.572;    7.978;39.30556
1057.12;   22.078;    2.472;    5.378;19.60556
1057.66;   31.278;    1.072;    6.578;30.20556
1058.21;   31.878;   -4.728;    5.178;36.60556
1058.75;   17.478;   -0.028;   -9.222;17.50556
1059.29;   14.778;    7.872;    7.278; 6.90556
1059.83;   38.778;    6.872;   11.178;31.90556
1060.37;   33.178;  -10.328;    3.078;43.50556
1060.91;   38.178;   -5.428;   12.078;43.60556
1061.46;   32.978;    0.272;   -5.922;32.70556
1062.00;   13.978;    8.072;   -8.922; 5.90556
1062.54;   37.778;    7.672;   12.778;30.10556
1063.08;   30.478;   -0.928;    3.078;31.40556
1063.62;   45.678;    3.172;   10.278;42.50556
1064.16;   33.178;   -3.228;    5.778;36.40556
1064.70;   39.278;    2.572;    2.778;36.70556
1065.24;   36.878;    6.172;   -3.022;30.70556
1065.79;   27.078;    4.572;    3.378;22.50556
1066.33;   11.578;   -0.728;    2.978;12.30556
1066.87;   34.978;   -1.828;    1.578;36.80556
1067.41;   39.678;   -1.128;    6.678;40.80556
1067.95;   39.678;   -3.428;   -2.022;43.10556
1068.49;   42.178;    6.572;   -2.922;35.60556
1069.03;   22.578;    1.572;    2.078;21.00556
1069.57;   30.078;   -3.328;    9.878;33.40556
1070.11;   25.978;    3.172;    5.578;22.80556
1070.65;   26.978;   -4.628;   -1.622;31.60556
1071.19;   36.478;   -1.528;    2.678;38.00556
1071.73;   44.478;    8.072;   -0.422;36.40556
1072.27;   36.678;    6.172;    6.278;30.50556
1072.81;   35.778;    2.572;    7.178;33.20556
1073.35;   22.178;    3.472;    8.478;18.70556
1073.90;   28.378;    3.272;    3.578;25.10556
1074.44;   31.178;    2.772;    3.278;28.40556
1074.98;   38.278;    8.672;   -3.422;29.60556
1075.52;   34.278;   11.972;    5.578;22.30556
1076.06;   21.178;    1.172;    1.978;20.00556
1076.60;   24.978;   -3.628;   10.078;28.60556
1077.14;   33.178;    2.672;    1.478;30.50556
1077.68;   39.078;    0.272;    2.178;38.80556
1078.22;   30.878;    6.772;  -13.822;24.10556
1078.76;   37.478;   10.672;    7.578;26.80556
1079.30;   34.178;   -3.028;    7.678;37.20556
1079.84;   25.878;   -3.828;    4.978;29.70556
1080.37;   26.378;   -0.928;   -2.522;27.30556
1080.91;   29.478;    2.972;    1.578;26.50556
1081.45;   21.578;    6.772;   -8.722;14.80556
1081.99;   29.178;    2.072;    8.078;27.10556
1082.53;   38.978;   -3.128;    4.878;42.10556
1083.07;   19.978;   -6.328;   11.778;26.30556
1083.61;   29.678;    3.772;    1.578;25.90556
1084.15;   26.478;   -6.128;    2.078;32.60556
1084.69;   37.478;   14.372;   -8.522;23.10556
1085.23;   32.878;    3.472;    9.478;29.40556
1085.77;   20.078;   -1.228;    6.478;21.30556
1086.31;   13.978;   -3.728;    4.278;17.70556
1086.85;   10.078;   -1.928;    7.878;12.00556
1087.39;   26.678;   -6.428;    4.578;33.10556
1087.93;   29.578;    3.872;   -3.522;25.70556
1088.46;   29.478;    6.572;    3.078;22.90556
1089.00;   40.278;   -1.228;   10.078;41.50556
1089.54;   25.478;   -4.028;    6.378;29.50556
1090.08;   33.678;    4.072;    5.278;29.60556
1090.62;   28.878;    6.072;   10.078;22.80556
1091.16;   32.278;    2.772;   -8.922;29.50556
1091.70;   23.778;    7.272;    5.378;16.50556
1092.24;   30.878;   -1.128;    7.678;32.00556
1092.77;   13.478;   -1.328;    7.878;14.80556
1093.31;   38.678;    0.472;    0.278;38.20556
1093.85;   35.578;    0.272;   11.578;35.30556
1094.39;   29.678;   10.172;   -8.922;19.50556
1094.93;   29.378;   -0.628;    1.678;30.00556
1095.47;   44.078;    9.372;   11.278;34.70556
1096.00;   29.878;    1.072;    8.378;28.80556
1096.54;   24.678;    4.372;    3.278;20.30556
1097.08;   24.378;   -5.228;    6.078;29.60556
1097.62;   31.578;    5.772;   -3.422;25.80556
1098.16;   26.078;    1.972;   -8.422;24.10556
1098.69;   18.578;    1.872;    1.578;16.70556
1099.23;    6.778;    0.872;   -1.322; 5.90556
1099.77;   24.178;    1.472;   -3.222;22.70556
1100.31;   29.178;   -1.828;    5.778;31.00556
1100.85;   29.378;    8.072;    2.278;21.30556
1101.38;   25.278;    8.572;   -8.322;16.70556
1101.92;   31.778;   -4.828;    9.178;36.60556
1102.46;   28.378;   -0.228;    4.778;28.60556
1103.00;   34.978;    1.272;    1.078;33.70556
1103.53;   32.278;    3.272;    3.878;29.00556
1104.07;   33.378;    4.872;   -4.022;28.50556
1104.61;   34.178;    1.372;   -0.622;32.80556
1105.15;   36.078;   -2.528;    3.878;38.60556
1105.68;   20.478;   -7.928;    0.878;28.40556
1106.22;   15.978;    3.572;    2.378;12.40556
1106.76;   19.278;    5.572;   10.178;13.70556
1107.30;   30.878;   11.972;    2.478;18.90556
1107.83;   22.778;    1.572;   -8.122;21.20556
1108.37;   34.678;   -3.128;   13.778;37.80556
1108.91;   24.078;    3.072;    7.378;21.00556
1109.44;   34.478;   -1.828;    1.978;36.30556
1109.98;   29.578;    0.472;    7.278;29.10556
1110.52;   36.778;    9.572;    2.078;27.20556
1111.05;   24.978;   -1.628;   -6.122;26.60556
1111.59;   34.878;    0.372;    5.978;34.50556
1112.13;   39.978;    0.972;    7.378;39.00556
1112.66;   28.178;    1.872;    1.778;26.30556
1113.20;   21.278;    1.772;    5.078;19.50556
1113.74;   25.578;    1.272;    0.978;24.30556
1114.27;   31.978;    4.572;    0.478;27.40556
1114.81;   26.278;   -0.428;   -0.622;26.70556
1115.35;   24.078;   -3.228;   11.878;27.30556
1115.88;   26.778;   -4.228;    2.978;31.00556
1116.42;   26.178;    4.172;    8.478;22.00556
1116.96;   25.178;    6.472;   -3.422;18.70556
1117.49;   37.478;    3.072;  -10.522;34.40556
1118.03;   24.778;    0.672;   -6.222;24.10556
1118.56;   26.178;    1.572;   11.678;24.60556
1119.10;   32.778;   -2.228;    3.578;35.00556
1119.64;   28.778;    3.672;    4.878;25.10556
1120.17;   31.378;    1.172;    2.978;30.20556
1120.71;   15.778;    7.372;  -12.122; 8.40556
1121.24;   35.478;   -3.728;    5.678;39.20556
1121.78;   22.878;   -2.328;    9.478;25.20556
1122.32;   48.678;   -1.628;    1.278;50.30556
1122.85;   25.078;    2.672;    8.678;22.40556
1123.39;   35.078;    6.972;   -0.922;28.10556
1123.92;   19.778;    2.272;   -4.722;17.50556
1124.46;   37.578;    5.372;   -2.122;32.20556
1124.99;   31.378;    6.472;    9.278;24.90556
1125.53;   26.778;   -2.028;   12.178;28.80556
1126.06;   27.578;    9.372;    2.678;18.20556
1126.60;   26.978;    4.272;    3.478;22.70556
1127.13;   35.878;    5.572;   -3.722;30.30556
1127.67;   34.978;    1.872;   -0.322;33.10556
1128.20;   31.478;    7.672;    4.078;23.80556
1128.74;   30.878;   -5.028;    5.678;35.90556
1129.28;   12.878;    4.572;    7.878; 8.30556
1129.81;   31.178;   10.172;   -0.522;21.00556
1130.35;   35.978;    8.372;   -0.922;27.60556
1130.88;   31.078;   -8.228;    3.278;39.30556
1131.41;   31.178;    7.072;   11.678;24.10556
1131.95;   28.378;   -5.328;   -1.122;33.70556
1132.48;   24.778;    2.072;    0.478;22.70556
1133.02;   19.078;    3.472;   -3.422;15.60556
1133.55;   13.678;    5.172;   -7.122; 8.50556
1134.09;   32.478;   -2.128;    7.378;34.60556
1134.62;   26.778;    0.872;    8.178;25.90556
1135.16;   -0.422;  -10.828;    2.778;10.40556
1135.69;   14.878;   10.972;    2.178; 3.90556
1136.23;   24.478;    5.172;   -0.222;19.30556
1136.76;   23.878;    7.372;   -3.222;16.50556
1137.29;   19.178;   -5.028;    0.278;24.20556
1137.83;   29.578;    3.072;    4.578;26.50556
1138.36;   19.178;   -1.928;    3.378;21.10556
1138.90;   31.478;    4.072;    1.878;27.40556
1139.43;   28.178;    7.172;    7.778;21.00556
1139.97;   27.278;    1.272;   -9.222;26.00556
1140.50;   35.378;    0.272;    2.578;35.10556
1141.03;   18.278;    4.372;    1.178;13.90556
1141.57;   27.878;   -6.628;    7.378;34.50556
1142.10;   21.478;    9.072;    5.378;12.40556
1142.63;   25.178;    2.872;    6.778;22.30556
1143.17;   24.978;    9.772;   -8.622;15.20556
1143.70;   27.378;   -9.228;   -0.422;36.60556
1144.24;   30.478;    6.972;    7.178;23.50556
1144.77;   22.278;   -1.528;    3.078;23.80556
1145.30;   19.678;    9.572;   13.578;10.10556
1145.84;   23.478;    6.272;    1.878;17.20556
1146.37;   20.678;    7.872;    0.178;12.80556
1146.90;   32.678;   -3.128;   -0.922;35.80556
1147.44;   31.778;    8.572;    7.178;23.20556
1147.97;   23.878;   -7.028;    1.378;30.90556
1148.50;   24.478;    6.472;    8.578;18.00556
1149.04;   22.078;    0.272;    3.478;21.80556
1149.57;   32.078;    1.172;   -5.222;30.90556
1150.10;   28.078;   -5.628;    7.778;33.70556
1150.64;   36.678;    5.372;    2.978;31.30556
1151.17;   17.378;   -4.228;    5.178;21.60556
1151.70;   25.878;    8.072;    5.578;17.80556
1152.23;   21.678;    6.872;    6.878;14.80556
1152.77;   26.478;    9.472;    0.378;17.00556
1153.30;   25.178;   -8.228;    1.378;33.40556
1153.83;   32.278;    9.072;    6.178;23.20556
1154.36;   10.478;   -3.028;    6.178;13.50556
1154.90;   35.878;    8.872;    5.178;27.00556
1155.43;   19.878;    7.972;    5.378;11.90556
1155.96;   35.278;    8.772;   -4.022;26.50556
1156.49;   33.278;   -8.628;   -5.922;41.90556
1157.03;   29.878;    3.672;    5.378;26.20556
1157.56;   24.178;   -2.228;    4.678;26.40556
1158.09;   27.978;   12.272;    7.078;15.70556
1158.62;   30.578;   -3.828;    9.478;34.40556
1159.16;   23.878;    7.572;   -4.522;16.30556
1159.69;   30.178;   -3.828;   -2.222;34.00556
1160.22;   40.178;    8.672;    7.478;31.50556
1160.75;   30.278;   -6.628;    4.878;36.90556
1161.28;   26.978;   11.872;    7.178;15.10556
1161.82;   26.978;    4.372;    5.978;22.60556
1162.35;   21.578;    4.372;   -8.322;17.20556
1162.88;   21.678;  -10.128;   -2.622;31.80556
1163.41;   25.578;    3.372;    3.978;22.20556
1163.94;   24.578;   -4.628;    5.678;29.20556
1164.47;   30.078;    3.572;   10.778;26.50556
1165.01;   23.278;    5.972;   10.178;17.30556
1165.54;   20.778;    2.272;  -11.522;18.50556
1166.07;   31.578;   -7.428;   -2.822;39.00556
1166.60;   35.278;    7.772;    8.778;27.50556
1167.13;   28.778;  -10.828;    6.578;39.60556
1167.66;    6.978;   10.872;    8.978;-3.89444
1168.19;   19.178;    4.372;    2.678;14.80556
1168.73;   24.978;    6.772;   -2.822;18.20556
1169.26;   15.678;  -10.328;  -11.722;26.00556
1169.79;   28.478;    9.372;   11.378;19.10556
1170.32;   31.278;   -1.828;    3.878;33.10556
1170.85;   25.878;    9.872;    5.178;16.00556
1171.38;   19.378;    4.972;    1.878;14.40556
1171.91;   19.978;    0.772;   -2.022;19.20556
1172.44;   27.978;   -2.928;   -5.422;30.90556
1172.97;   36.378;   15.972;   13.378;20.40556
1173.50;   24.978;   -3.028;    1.878;28.00556
1174.03;   19.878;   10.672;    2.578; 9.20556
1174.56;   22.278;    2.472;    2.378;19.80556
1175.10;   19.378;    2.072;   -0.422;17.30556
1175.63;   28.178;    3.072;   -0.422;25.10556
1176.16;   37.178;   -0.828;   12.378;38.00556
1176.69;   36.678;   -2.328;    3.978;39.00556
1177.22;   18.978;    3.772;    8.578;15.20556
1177.75;   27.278;    2.472;    3.378;24.80556
1178.28;   27.578;   -6.328;   -1.622;33.90556
1178.81;   32.378;   -1.428;   -5.522;33.80556
1179.34;   29.578;   -0.828;    4.978;30.40556
1179.87;   27.478;    3.272;   -2.522;24.20556
1180.40;   18.778;    7.872;    7.778;10.90556
1180.93;   27.078;    2.472;    2.278;24.60556
1181.46;   19.678;   -3.328;   -0.122;23.00556
1181.99;   22.078;   -0.328;   -2.322;22.40556
1182.52;   30.378;    5.272;    7.078;25.10556
1183.05;   21.278;    0.472;    5.478;20.80556
1183.58;   27.278;    7.472;    7.078;19.80556
1184.11;    5.278;    4.072;    1.978; 1.20556
1184.64;   18.178;    2.272;    2.678;15.90556
1185.17;   29.578;    3.672;  -10.322;25.90556
1185.70;   27.878;   -2.328;    6.378;30.20556
1186.23;   21.878;   -3.828;   -2.022;25.70556
1186.75;   11.378;    9.572;    6.478; 1.80556
1187.28;   27.278;   14.472;    0.178;12.80556
1187.81;    9.078;   -5.628;    5.578;14.70556
1188.34;   30.278;   11.472;  -17.022;18.80556
1188.87;   34.378;   -0.028;   11.178;34.40556
1189.40;   27.478;   -2.028;   -0.222;29.50556
1189.93;   21.678;    5.072;    8.378;16.60556
1190.46;   17.378;    4.472;    0.478;12.90556
1190.99;   18.078;   -8.228;    1.978;26.30556
1191.52;   20.478;    7.672;   -8.322;12.80556
1192.05;   24.778;   -1.428;    7.678;26.20556
1192.57;   33.678;   -6.028;    3.278;39.70556
1193.10;   30.178;    4.472;    9.978;25.70556
1193.63;   33.678;    7.272;    2.878;26.40556
1194.16;   20.478;   -3.528;   -1.822;24.00556
1194.69;   10.978;    2.872;   -7.622; 8.10556
1195.22;   29.378;    2.272;    8.978;27.10556
1195.75;   22.678;   -1.928;    8.678;24.60556
1196.27;   26.678;   11.472;    8.778;15.20556
1196.80;   26.878;    1.672;    1.778;25.20556
1197.33;   17.778;    1.472;   -2.022;16.30556
1197.86;   34.678;   -0.628;   -2.522;35.30556
1198.39;   29.978;    4.372;    7.778;25.60556
1198.92;   35.978;   -3.528;   -0.022;39.50556
1199.44;   26.378;    7.872;   10.578;18.50556
1199.97;   19.678;   -0.828;    1.078;20.50556
1200.50;   17.478;   -0.228;   -1.022;17.70556
1201.03;   30.578;    6.072;   -7.622;24.50556
1201.56;   38.978;    0.672;    0.178;38.30556
1202.08;   30.578;   -1.628;    2.478;32.20556
1202.61;   20.378;    1.672;    2.378;18.70556
1203.14;   13.978;    3.472;   -0.922;10.50556
1203.67;   23.778;   -6.028;    2.778;29.80556
1204.19;   28.778;    8.672;    0.278;20.10556
1204.72;   33.278;   -2.128;    2.878;35.40556
1205.25;   33.278;    3.372;    7.178;29.90556
1205.78;   26.378;    7.372;    9.878;19.00556
1206.30;   29.978;    1.272;    6.178;28.70556
1206.83;   27.478;    1.872;    7.678;25.60556
1207.36;   39.578;    5.272;   -2.722;34.30556
1207.89;   42.478;   -2.328;    1.378;44.80556
1208.41;   30.678;    0.472;    3.978;30.20556
1208.94;   34.478;    9.072;    6.678;25.40556
1209.47;   26.378;   -0.628;    0.478;27.00556
1210.00;   30.078;    5.372;    0.178;24.70556
1210.52;   27.778;    6.672;    3.378;21.10556
1211.05;   31.478;   -6.228;   -1.722;37.70556
1211.58;   40.678;   -2.128;    6.278;42.80556
1212.10;   12.478;   10.172;    4.978; 2.30556
1212.63;   25.178;    5.472;   -3.222;19.70556
1213.16;   27.478;    0.572;   -0.322;26.90556
1213.68;   43.678;    5.872;    0.878;37.80556
1214.21;   37.178;    1.472;   -2.822;35.70556
1214.74;   39.178;   -1.928;   10.878;41.10556
1215.26;   20.178;   10.472;    1.878; 9.70556
1215.79;   24.978;    6.472;    6.878;18.50556
1216.32;   34.678;   -3.928;   -2.022;38.60556
1216.84;   15.878;    6.872;    3.778; 9.00556
1217.37;   46.378;   -7.628;   -5.622;54.00556
1217.89;   42.678;   -2.928;    9.678;45.60556
1218.42;   10.578;    5.172;    3.278; 5.40556
1218.95;   21.778;    4.372;    3.578;17.40556
1219.47;   43.278;    0.472;    2.778;42.80556
1220.00;   28.578;    2.672;   -1.122;25.90556
1220.52;   35.078;   -5.528;   -7.422;40.60556
1221.05;   36.478;   -1.628;   14.478;38.10556
1221.58;   38.178;    5.172;    6.178;33.00556
1222.10;   35.878;    0.872;    3.278;35.00556
1222.63;   38.478;    3.272;   -3.622;35.20556
1223.15;   37.778;    6.372;    7.278;31.40556
1223.68;   44.078;   -1.828;   -7.622;45.90556
1224.20;   49.078;    3.772;    9.478;45.30556
1224.73;   43.178;   11.972;   15.778;31.20556
1225.26;   40.778;    3.172;    6.478;37.60556
1225.78;   38.778;   -3.528;    1.978;42.30556
1226.31;   47.678;    9.972;   11.778;37.70556
1226.83;   53.678;   -3.528;   -8.422;57.20556
1227.36;   56.178;    5.472;    7.878;50.70556
1227.88;   41.278;    5.272;    2.278;36.00556
1228.41;   28.878;    6.472;    8.478;22.40556
1228.93;   45.578;   -2.228;    4.678;47.80556
1229.46;   45.578;    8.672;    8.078;36.90556
1229.98;   42.678;   -6.628;  -13.922;49.30556
1230.51;   50.778;    7.272;   10.578;43.50556
1231.03;   43.978;    6.272;   -0.522;37.70556
1231.56;   45.778;    4.772;    5.178;41.00556
1232.08;   32.278;   -2.828;    2.978;35.10556
1232.61;   47.578;    7.172;    7.678;40.40556
1233.13;   46.778;    1.372;   -4.122;45.40556
1233.66;   53.178;    5.272;   13.278;47.90556
1234.18;   45.378;    5.372;    3.878;40.00556
1234.71;   56.778;   -1.128;    9.478;57.90556
1235.23;   41.978;   -2.428;   -3.122;44.40556
1235.75;   51.378;   10.372;    3.878;41.00556
1236.28;   50.778;   -6.728;   -3.922;57.50556
1236.80;   55.278;    5.672;    3.878;49.60556
1237.33;   54.678;    1.172;    3.678;53.50556
1237.85;   42.478;    6.672;    8.578;35.80556
1238.38;   47.078;   -2.228;    3.678;49.30556
1238.90;   53.978;    1.872;    4.878;52.10556
1239.42;   46.378;   -4.428;   -5.722;50.80556
1239.95;   59.178;    6.072;    5.078;53.10556
1240.47;   15.978;    7.572;   11.378; 8.40556
1240.99;   41.678;    6.072;   11.778;35.60556
1241.52;   30.378;   -1.828;    0.378;32.20556
1242.04;   47.178;    5.572;    3.878;41.60556
1242.57;   48.578;   -5.528;   -9.822;54.10556
1243.09;   53.878;    6.472;    3.678;47.40556
1243.61;   55.278;    6.372;   12.378;48.90556
1244.14;   49.578;   -2.828;    7.978;52.40556
1244.66;   46.378;  -11.928;    5.878;58.30556
1245.18;   53.078;    1.972;    8.478;51.10556
1245.71;   49.778;   -6.528;   -3.422;56.30556
1246.23;   61.178;   13.172;   -4.222;48.00556
1246.75;   60.778;    7.172;    4.778;53.60556
1247.28;   34.778;    4.272;    3.978;30.50556
1247.80;   48.378;   -3.928;    2.178;52.30556
1248.32;   47.078;   -4.028;    4.178;51.10556
1248.85;   45.678;   -8.128;   -2.222;53.80556
1249.37;   55.678;    4.672;   -2.722;51.00556
1249.89;   56.578;    0.572;   13.378;56.00556
1250.41;   61.278;    3.772;   12.778;57.50556
1250.94;   48.078;   -3.228;   -4.522;51.30556
1251.46;   40.478;    2.172;    7.978;38.30556
1251.98;   33.378;   -8.628;    3.678;42.00556
1252.51;   67.478;    4.172;   -3.922;63.30556
1253.03;   53.978;    1.372;    7.078;52.60556
1253.55;   59.778;    2.472;    9.278;57.30556
1254.07;   56.678;   -4.128;   -1.422;60.80556
1254.60;   64.678;    0.972;    8.478;63.70556
1255.12;   54.678;   -2.328;    1.078;57.00556
1255.64;   58.978;    0.972;   -3.022;58.00556
1256.16;   58.878;   -0.128;    3.978;59.00556
1256.68;   54.778;    0.072;    1.678;54.70556
1257.21;   54.778;   -2.428;    0.778;57.20556
1257.73;   52.978;    2.172;    5.478;50.80556
1258.25;   44.478;    1.072;    0.678;43.40556
1258.77;   61.378;   12.272;   -8.022;49.10556
1259.29;   69.178;    5.172;    6.378;64.00556
1259.82;   64.078;   -1.528;    4.378;65.60556
1260.34;   57.278;   -3.728;   -0.222;61.00556
1260.86;   58.478;   -3.728;    8.078;62.20556
1261.38;   58.078;   -4.528;   -2.822;62.60556
1261.90;   61.378;    9.572;   -5.422;51.80556
1262.42;   50.378;    6.972;    6.178;43.40556
1262.95;   61.078;    3.872;    0.978;57.20556
1263.47;   55.078;   -7.928;    3.678;63.00556
1263.99;   45.978;   -1.128;    4.178;47.10556
1264.51;   73.478;    0.672;   -0.322;72.80556
1265.03;   71.578;    9.372;    0.178;62.20556
1265.55;   66.378;    2.972;    3.078;63.40556
1266.07;   70.278;    7.472;   -0.222;62.80556
1266.60;   62.678;    2.672;   -5.222;60.00556
1267.12;   67.278;    8.972;    3.178;58.30556
1267.64;   64.778;    0.372;   -1.122;64.40556
1268.16;   76.078;    2.672;   -1.022;73.40556
1268.68;   62.378;    3.472;    0.578;58.90556
1269.20;   84.078;   -1.828;    5.878;85.90556
1269.72;   89.878;   -1.128;   -2.022;91.00556
1270.24;   86.378;    1.572;   10.578;84.80556
1270.76;   77.178;    8.872;    1.478;68.30556
1271.28;   77.978;    3.672;   -4.522;74.30556
1271.80;   90.678;    5.472;    0.178;85.20556
1272.32;   66.278;    1.572;    9.478;64.70556
1272.84;   75.578;   -6.128;   -0.622;81.70556
1273.37;   58.278;   -1.628;    7.978;59.90556
1273.89;   87.478;   -0.028;    4.478;87.50556
1274.41;   98.778;   12.672;   -1.422;86.10556
1274.93;   88.478;    5.772;    0.078;82.70556
1275.45;  123.778;    4.772;   11.778;119.00556
1275.97;   84.778;    2.072;   -6.522;82.70556
1276.49;   98.278;   -0.828;    7.278;99.10556
1277.01;   82.178;   -8.028;   -5.522;90.20556
1277.53;   90.778;    1.472;   -1.922;89.30556
1278.05;   87.078;   -0.828;   -2.222;87.90556
1278.57;   86.678;    0.072;    9.678;86.60556
1279.09;   79.478;   -4.028;   -1.322;83.50556
1279.61;   77.178;    0.272;    7.778;76.90556
1280.13;  119.278;    6.572;   11.178;112.70556
1280.65;  107.278;   -3.528;    5.578;110.80556
1281.16;   91.178;    2.672;   -2.422;88.50556
1281.68;   88.578;   -2.428;    8.178;91.00556
1282.20;   71.078;   -2.428;   -3.422;73.50556
1282.72;   85.078;    6.272;   -1.522;78.80556
1283.24;   90.078;    0.572;   -0.822;89.50556
1283.76;  106.678;    8.572;    1.178;98.10556
1284.28;  106.778;    6.072;    1.478;100.70556
1284.80;  109.378;    2.572;    9.578;106.80556
1285.32;  104.978;    0.272;   -0.422;104.70556
1285.84;  111.378;   -2.128;    5.578;113.50556
1286.36;  112.178;    3.672;    2.478;108.50556
1286.88;  106.678;    5.872;    6.678;100.80556
1287.40;  116.778;   16.672;    7.278;100.10556
1287.91;  117.578;   -3.528;    1.378;121.10556
1288.43;  119.778;   -1.928;   -3.122;121.70556
1288.95;  108.978;    2.472;    7.578;106.50556
1289.47;  110.178;    1.472;    7.278;108.70556
1289.99;  134.478;    5.772;    1.378;128.70556
1290.51;  123.478;    4.772;    0.378;118.70556
1291.03;  105.278;    0.172;    5.978;105.10556
1291.54;   73.178;   -9.228;    0.878;82.40556
1292.06;  123.978;    6.572;    6.078;117.40556
1292.58;  116.578;    8.072;   -0.022;108.50556
1293.10;  109.078;    3.072;    2.778;106.00556
1293.62;   96.778;    2.372;   -1.422;94.40556
1294.14;   76.878;    6.272;    5.078;70.60556
1294.65;  120.878;   -0.928;   -2.822;121.80556
1295.17;  125.778;    4.072;    7.178;121.70556
1295.69;  122.678;    4.472;   -2.622;118.20556
1296.21;  114.478;    6.272;    7.178;108.20556
1296.73;  120.678;    0.372;   -1.422;120.30556
1297.24;  114.978;   -2.328;   12.078;117.30556
1297.76;   64.978;   -7.228;   -1.322;72.20556
1298.28;  128.678;    1.472;   15.278;127.20556
1298.80;  102.578;    1.072;   -0.522;101.50556
1299.32;   97.378;    2.872;   -0.122;94.50556
1299.83;  118.278;    3.872;    7.978;114.40556
1300.35;  120.378;    8.072;    8.878;112.30556
1300.87;   63.378;   -0.928;   -1.322;64.30556
1301.38;  108.678;    2.572;    7.678;106.10556
1301.90;  112.478;    0.172;    1.978;112.30556
1302.42;  120.078;    6.372;    0.278;113.70556
1302.94;  124.278;    5.672;    3.878;118.60556
1303.45;   77.278;    4.672;    4.078;72.60556
1303.97;  100.278;   -7.628;    6.978;107.90556
1304.49;  133.678;   -0.428;    5.878;134.10556
1305.01;  110.578;    5.672;    3.478;104.90556
1305.52;  106.878;    6.272;   -1.122;100.60556
1306.04;  120.578;    1.272;    3.178;119.30556
1306.56;  107.378;    7.172;   -1.222;100.20556
1307.07;  117.378;   -3.728;   -3.722;121.10556
1307.59;  126.378;   -3.128;   10.178;129.50556
1308.11;   95.878;    2.572;    0.978;93.30556
1308.62;  131.878;    0.072;    1.078;131.80556
1309.14;  140.478;    5.972;   -0.122;134.50556
1309.66;  123.978;    4.772;    0.478;119.20556
1310.17;  128.778;    1.472;   -0.822;127.30556
1310.69;  137.178;   -0.628;   14.578;137.80556
1311.20;  122.378;    6.672;    3.878;115.70556
1311.72;  114.578;    7.872;    3.378;106.70556
1312.24;  130.578;   -0.128;    3.178;130.70556
1312.75;  139.178;   -1.428;    8.078;140.60556
1313.27;  133.678;   -1.428;    5.278;135.10556
1313.79;  148.478;   -3.028;    7.578;151.50556
1314.30;  128.178;    2.172;   -1.222;126.00556
1314.82;  147.578;    4.572;    2.278;143.00556
1315.33;  148.378;    3.072;    2.278;145.30556
1315.85;  144.178;   -1.028;    0.578;145.20556
1316.36;  141.678;   -2.528;    6.578;144.20556
1316.88;  170.378;    2.772;    3.478;167.60556
1317.40;  166.878;    8.772;    9.878;158.10556
1317.91;  153.578;    9.772;    3.678;143.80556
1318.43;  152.678;    6.672;    6.778;146.00556
1318.94;  155.378;    1.672;   -1.822;153.70556
1319.46;  125.878;   -5.928;    1.778;131.80556
1319.97;  163.078;   -0.328;    8.578;163.40556
1320.49;  154.078;    3.972;    4.078;150.10556
1321.00;  193.678;    9.072;   -1.922;184.60556
1321.52;  158.478;    5.672;    7.678;152.80556
1322.03;  175.478;    2.472;    1.678;173.00556
1322.55;  165.178;    3.172;    5.778;162.00556
1323.06;  175.978;   -2.128;    8.778;178.10556
1323.58;  166.578;    4.972;    4.378;161.60556
1324.09;  170.378;    3.172;   -2.622;167.20556
1324.61;  183.878;    8.572;    4.278;175.30556
1325.12;  166.478;    6.572;    4.578;159.90556
1325.64;  149.178;   -0.528;   -2.122;149.70556
1326.15;  163.278;   -1.728;   11.978;165.00556
1326.67;  169.678;    5.372;    7.678;164.30556
1327.18;  162.578;    5.472;    0.778;157.10556
1327.70;  179.678;    6.372;    4.678;173.30556
1328.21;    5.178;    4.072;   -2.222; 1.10556
1328.73;  -10.122;   -4.828;   -2.522;-5.29444
1329.24;    7.378;   -2.328;   13.078; 9.70556
1329.75;    1.778;    1.272;    1.078; 0.50556
1330.27;   -0.222;    0.772;    4.778;-0.99444
1330.78;    3.678;   -1.028;    2.478; 4.70556
1331.30;    3.478;    1.672;   -0.322; 1.80556
1331.81;   -9.522;   -4.028;   -3.722;-5.49444
1332.32;    6.578;   -1.928;    6.378; 8.50556
1332.84;   -1.922;   -0.628;    1.278;-1.29444
1333.35;    2.278;   -1.128;    1.578; 3.40556
1333.87;    1.378;    3.572;   -2.922;-2.19444
1334.38;   -2.422;   -2.628;    0.278; 0.20556
1334.89;  -11.422;   -1.128;  -14.122;-10.29444
1335.41;    2.778;   -5.328;    5.678; 8.10556
1335.92;    3.978;    6.372;    3.078;-2.39444
1336.43;    0.878;   12.072;   -3.922;-11.19444
1336.95;   -0.922;    0.272;   -1.322;-1.19444
1337.46;   -1.422;   -6.128;   -4.022; 4.70556
1337.97;   -6.322;    0.272;   -9.322;-6.59444

