Data from 3.0bar_Subt2__0__19-58-30-175.txt Node

Date: Thu Jan 06 19:58:30 CET 2022
User: fsatto
Spectrometer: OFX01956
Trigger mode: 0
Integration Time (sec): 2,000000E-3
Scans to average: 10
Nonlinearity correction enabled: false
Boxcar width: 0
Storing dark spectrum: false
XAxis mode: Wavelengths
Number of Pixels in Spectrum: 2136
>>>>>Begin Spectral Data<<<<<
158,236	18,5
158,705	22,9
159,174	19,9
159,643	16,6
160,112	21,5
160,582	18,5
161,051	15,4
161,52	8,7
161,988	19,3
162,457	20,5
162,926	14,7
163,395	15,8
163,864	10,1
164,332	17,4
164,801	8,9
165,269	14,6
165,738	21,8
166,206	17,4
166,675	12,4
167,143	19,9
167,612	19,1
168,08	5,6
168,548	10,4
169,016	14,9
169,484	12,3
169,952	17,5
170,42	14,3
170,888	15,1
171,356	18,9
171,824	13,3
172,292	14,9
172,759	17,3
173,227	16,1
173,695	14,4
174,162	15,5
174,63	13,6
175,097	18,5
175,565	15,4
176,032	16,8
176,499	17
176,967	14,4
177,434	18,1
177,901	18,7
178,368	17,4
178,835	24,2
179,302	24
179,769	16,7
180,236	13,6
180,703	18,9
181,17	17
181,637	10
182,103	15,5
182,57	16
183,036	19
183,503	11
183,97	20,1
184,436	15,3
184,902	12,2
185,369	12,4
185,835	21
186,301	12,5
186,767	15,5
187,234	11,5
187,7	13,1
188,166	11,5
188,632	17,5
189,098	18,6
189,563	16,9
190,029	17,3
190,495	7,8
190,961	15,8
191,426	10,5
191,892	18,6
192,358	4
192,823	17
193,289	11,5
193,754	28,4
194,219	19,2
194,685	23
195,15	24
195,615	14,2
196,08	13,7
196,545	14,4
197,01	14,6
197,475	19,5
197,94	14,6
198,405	14,1
198,87	19,9
199,335	20,2
199,8	16,3
200,264	410,8
200,729	410,7
201,193	424,9
201,658	424,5
202,122	456,1
202,587	456,1
203,051	475,3
203,516	464,5
203,98	477,4
204,444	508,4
204,908	534,9
205,372	524,3
205,836	535
206,3	519,8
206,764	557,9
207,228	543,3
207,692	564,9
208,156	568
208,62	605,3
209,083	604,6
209,547	633,1
210,011	674,7
210,474	708,8
210,938	783,4
211,401	823,5
211,864	884,9
212,328	934,5
212,791	1047,2
213,254	1140,9
213,717	1250,6
214,181	1368,2
214,644	1516,9
215,107	1653,7
215,57	1723,2
216,033	1886,5
216,495	2075
216,958	2250,8
217,421	2377,4
217,884	2553
218,346	2636,6
218,809	2769,8
219,272	2999,5
219,734	3310,7
220,196	3518,3
220,659	3874,3
221,121	4051,2
221,584	4180
222,046	4173,4
222,508	4146,8
222,97	4324,9
223,432	4695,6
223,894	5164,6
224,356	5382,2
224,818	5514,9
225,28	5788,2
225,742	6254,5
226,204	6897,6
226,665	7472,4
227,127	7604,2
227,589	7268,5
228,05	7612,7
228,512	8181,5
228,973	8640,8
229,435	8965,9
229,896	9171,9
230,357	9140,1
230,818	9010,3
231,28	9301,2
231,741	9695,5
232,202	9782,1
232,663	9367,8
233,124	8981,7
233,585	9070,7
234,046	9733,4
234,507	10344,5
234,967	10496
235,428	9833,5
235,889	9339
236,349	9530,8
236,81	10097,6
237,271	10500,2
237,731	10716,9
238,191	10508,7
238,652	9802,9
239,112	9412,6
239,572	10140,5
240,033	10966
240,493	10835,2
240,953	9910,8
241,413	9050,1
241,873	9205,7
242,333	9410,3
242,793	9558
243,253	9949,2
243,712	10247,5
244,172	10291,1
244,632	10798,4
245,092	11263,2
245,551	11989,2
246,011	12474,2
246,47	12195,8
246,93	11447,3
247,389	11768,5
247,848	13414,4
248,308	15357,2
248,767	16834,1
249,226	17089,2
249,685	15748,7
250,144	15171,7
250,603	16362,8
251,062	17978,3
251,521	18932,3
251,98	19462
252,439	19071,4
252,897	18592,9
253,356	18643,2
253,815	19334,9
254,273	19410,2
254,732	19219,9
255,19	18253,6
255,649	17307,3
256,107	16868,6
256,566	17188,2
257,024	17405,8
257,482	17009,5
257,94	16349,4
258,398	16511,1
258,856	16667,8
259,315	16580,4
259,772	17050,2
260,23	18012,3
260,688	18122,7
261,146	17266,7
261,604	16592,3
262,062	16448,5
262,519	16041,4
262,977	15541,2
263,434	15219,1
263,892	15074,9
264,349	13878,5
264,807	12938,9
265,264	12178,3
265,721	12179,6
266,179	12299,2
266,636	11792,1
267,093	10598
267,55	9869,4
268,007	9859,5
268,464	9942,2
268,921	9845,6
269,378	10030,3
269,835	9911,6
270,291	9204
270,748	8511,1
271,205	8421,8
271,661	8634,8
272,118	8656
272,574	8141,2
273,031	7638,1
273,487	7002,7
273,944	6543,4
274,4	6202,9
274,856	6092,9
275,312	5981,7
275,768	5515
276,225	5118,3
276,681	4921,9
277,137	4822
277,593	4848
278,048	4899,9
278,504	4819,1
278,96	4702,5
279,416	4550,7
279,871	4491,7
280,327	4378,4
280,783	4313,1
281,238	4279,7
281,694	4205,9
282,149	4182,9
282,604	3993,7
283,06	3820,4
283,515	3674,3
283,97	3535,5
284,425	3381,5
284,88	3321,8
285,335	3259,2
285,79	3146,4
286,245	2921,4
286,7	2749,1
287,155	2656,9
287,61	2614,9
288,064	2532,8
288,519	2457,6
288,974	2305
289,428	2156,9
289,883	2100,8
290,337	2088,4
290,792	2071,6
291,246	2019
291,7	1979,3
292,155	1987,4
292,609	1924,7
293,063	1844,4
293,517	1711,5
293,971	1723,4
294,425	1678
294,879	1643,9
295,333	1593,2
295,787	1481,2
296,241	1335
296,694	1275,7
297,148	1167,6
297,602	1070,8
298,055	1006,3
298,509	929,8
298,962	877
299,416	784,3
299,869	695,6
300,322	623,1
300,775	586,7
301,229	536,9
301,682	480
302,135	427,4
302,588	393,5
303,041	340,8
303,494	330,4
303,947	306,5
304,4	276
304,852	267,5
305,305	246,9
305,758	243,7
306,21	233
306,663	236,1
307,115	238,4
307,568	230,7
308,02	219,6
308,473	212,1
308,925	207,6
309,377	184,4
309,829	185,8
310,282	176
310,734	169,3
311,186	151,6
311,638	155,5
312,09	139,6
312,542	135,4
312,993	123,5
313,445	128,9
313,897	124,3
314,349	120,2
314,8	108,4
315,252	105,2
315,703	87,5
316,155	90,9
316,606	78,7
317,058	79,7
317,509	80,6
317,96	89,8
318,411	82,3
318,863	68,2
319,314	56,4
319,765	64,8
320,216	65,4
320,667	64,6
321,117	46,6
321,568	56
322,019	58,8
322,47	62,1
322,921	57,9
323,371	45,1
323,822	57,2
324,272	49,9
324,723	48,4
325,173	38,7
325,623	47,2
326,074	35,3
326,524	36,3
326,974	30,3
327,424	27
327,874	41,5
328,325	28,6
328,775	29,8
329,224	34,2
329,674	35,7
330,124	40,7
330,574	29
331,024	37,9
331,473	21
331,923	31
332,373	19,2
332,822	33,3
333,272	15,2
333,721	37,9
334,17	32,5
334,62	31,4
335,069	12,8
335,518	22,7
335,967	19,4
336,416	25,8
336,865	17,3
337,314	21,3
337,763	27,7
338,212	22,3
338,661	23,1
339,11	20,4
339,558	21,4
340,007	21,4
340,456	24
340,904	21,5
341,353	27,4
341,801	24,2
342,25	21,4
342,698	21,9
343,146	19,6
343,595	20
344,043	30,8
344,491	21,4
344,939	20,2
345,387	27,1
345,835	9,9
346,283	19,9
346,731	14,8
347,179	12,1
347,626	28,1
348,074	25,1
348,522	17,9
348,969	17,9
349,417	22,1
349,865	17,4
350,312	28,8
350,759	19,7
351,207	19,6
351,654	21,7
352,101	20,3
352,548	23,9
352,996	13,7
353,443	18,6
353,89	17,5
354,337	28,7
354,784	15,7
355,231	19,9
355,677	26,3
356,124	19,3
356,571	20,9
357,018	19,6
357,464	17,4
357,911	19,6
358,357	21,4
358,804	10,1
359,25	19,1
359,696	16,5
360,143	28,9
360,589	17,1
361,035	15,7
361,481	19
361,927	8,8
362,373	15,8
362,819	18,7
363,265	18,2
363,711	21,8
364,157	20,8
364,603	20,6
365,048	18,6
365,494	20,9
365,94	21,8
366,385	16,6
366,831	19,7
367,276	18,9
367,722	23,8
368,167	14,9
368,612	14,9
369,057	16,1
369,503	14
369,948	17,5
370,393	14,7
370,838	16,9
371,283	13,6
371,728	10,3
372,173	19,3
372,617	20
373,062	12,3
373,507	18,3
373,951	16,9
374,396	19,3
374,841	7,9
375,285	14
375,729	12,6
376,174	20,9
376,618	18,2
377,062	13
377,507	18,9
377,951	17,3
378,395	20
378,839	11,8
379,283	15,7
379,727	15,3
380,171	19,6
380,615	23,4
381,059	25,9
381,502	20,4
381,946	30,1
382,39	15,8
382,833	19,4
383,277	23,9
383,72	17,8
384,164	12,7
384,607	23,9
385,05	18,4
385,494	21,5
385,937	27,5
386,38	17,5
386,823	5,5
387,266	11,8
387,709	21,6
388,152	21,3
388,595	22,3
389,038	23
389,481	27,4
389,923	24,4
390,366	19,4
390,809	13,1
391,251	10,5
391,694	17,4
392,136	10
392,579	19,7
393,021	13,7
393,463	18,6
393,906	19,6
394,348	21,2
394,79	21,2
395,232	22,4
395,674	16,3
396,116	21
396,558	18,4
397	22,6
397,442	22,5
397,884	11,1
398,325	15,4
398,767	15,7
399,209	7,8
399,65	14,5
400,092	21,7
400,533	22,2
400,974	26,9
401,416	15,3
401,857	17,5
402,298	14,3
402,74	18,8
403,181	23,8
403,622	16,9
404,063	20,3
404,504	19
404,945	19,9
405,386	18,5
405,826	19,1
406,267	20,1
406,708	-3,9
407,149	17,9
407,589	21,8
408,03	20,8
408,47	13,6
408,911	20,9
409,351	15,9
409,791	5,2
410,232	29
410,672	16,3
411,112	28,3
411,552	20,4
411,992	28,5
412,432	15,5
412,872	9,3
413,312	19,5
413,752	14,1
414,192	19
414,632	13
415,071	13,3
415,511	21,6
415,951	19,1
416,39	16,7
416,83	21,8
417,269	19,9
417,708	23,1
418,148	17
418,587	23,6
419,026	22,8
419,465	17,4
419,904	23,5
420,344	19,3
420,783	26
421,221	20,6
421,66	22
422,099	19
422,538	19,9
422,977	20,9
423,415	9,8
423,854	21,5
424,293	9,1
424,731	29,6
425,17	22,4
425,608	20,4
426,046	21,5
426,485	24,2
426,923	24,6
427,361	18,5
427,799	24,1
428,237	19,7
428,675	26
429,113	16,6
429,551	25,7
429,989	7,1
430,427	21,6
430,865	10,8
431,303	17,3
431,74	30,8
432,178	16,1
432,615	17,7
433,053	22,7
433,49	19,4
433,928	19,4
434,365	28,7
434,802	14,2
435,24	16,6
435,677	12,7
436,114	20
436,551	15,8
436,988	32,9
437,425	19,4
437,862	10,7
438,299	13,2
438,736	18,4
439,172	19,1
439,609	27,6
440,046	22,7
440,482	21,7
440,919	25,3
441,355	23,1
441,792	23,3
442,228	14
442,665	19,6
443,101	13,6
443,537	13,1
443,973	10,3
444,409	22,7
444,845	16,4
445,281	16
445,717	16,9
446,153	19,9
446,589	23,4
447,025	19
447,461	21,5
447,896	15,8
448,332	14,7
448,768	23,8
449,203	19,1
449,639	22
450,074	19,4
450,509	25,7
450,945	19,9
451,38	19,6
451,815	12,1
452,25	11,9
452,685	17,8
453,12	21,8
453,555	30,5
453,99	19,8
454,425	16,7
454,86	19
455,295	29,8
455,73	25,1
456,164	11,3
456,599	12,4
457,033	17,1
457,468	16,6
457,902	12,2
458,337	24,5
458,771	16,2
459,205	12,7
459,64	27,9
460,074	11,1
460,508	17,3
460,942	4,6
461,376	21,6
461,81	16,2
462,244	15,6
462,678	20
463,112	19,7
463,545	12,4
463,979	17,5
464,413	25,1
464,846	22
465,28	21,5
465,713	21,4
466,147	24,8
466,58	13,3
467,014	28,5
467,447	22,5
467,88	15,7
468,313	20,3
468,746	21,1
469,179	23,4
469,612	28,9
470,045	24,9
470,478	10
470,911	16,4
471,344	20,1
471,777	25,1
472,209	29,8
472,642	29,5
473,074	19,1
473,507	27,3
473,939	20,4
474,372	21,8
474,804	12,4
475,236	20,3
475,669	25,8
476,101	23,4
476,533	14
476,965	21,8
477,397	24,9
477,829	23,3
478,261	17,7
478,693	21,7
479,125	21,4
479,557	23,7
479,988	15,8
480,42	19,7
480,852	22,1
481,283	14,1
481,715	19,3
482,146	18,7
482,577	30,7
483,009	20,7
483,44	13,7
483,871	23,6
484,302	18,6
484,734	26,8
485,165	27,1
485,596	22,9
486,027	18,3
486,457	25,1
486,888	22,9
487,319	30,6
487,75	27,8
488,181	17,4
488,611	23,3
489,042	20,6
489,472	25,4
489,903	26,4
490,333	17,2
490,764	21,9
491,194	20,8
491,624	20,5
492,054	17,4
492,484	10,7
492,915	28,3
493,345	22,7
493,775	16,4
494,204	26,6
494,634	19,7
495,064	13
495,494	19
495,924	14,2
496,353	16,9
496,783	15,8
497,212	26,7
497,642	13,1
498,071	14,4
498,501	22,2
498,93	16,8
499,359	23,8
499,789	17,2
500,218	19,9
500,647	24
501,076	22,8
501,505	15,5
501,934	18,2
502,363	13,5
502,792	15,1
503,221	15,4
503,649	18,8
504,078	18,3
504,507	13,7
504,935	10,6
505,364	16,1
505,792	13,8
506,221	18,8
506,649	20
507,077	22,1
507,506	19,1
507,934	22,4
508,362	17,9
508,79	22,6
509,218	27,3
509,646	26,1
510,074	29,4
510,502	15,6
510,93	8,7
511,357	16,9
511,785	14,1
512,213	14,2
512,64	19,2
513,068	20,5
513,496	20,5
513,923	17,3
514,35	15,9
514,778	12,3
515,205	26
515,632	11,5
516,059	10,9
516,486	12,9
516,914	20,9
517,341	22,6
517,768	25,1
518,194	12
518,621	14
519,048	19,1
519,475	21,3
519,902	14,2
520,328	12,6
520,755	15,2
521,181	20,3
521,608	21,7
522,034	23,6
522,461	17,3
522,887	14,3
523,313	20,1
523,739	27,5
524,165	9,8
524,592	26,6
525,018	21,2
525,444	17,6
525,869	22,5
526,295	24,8
526,721	15,4
527,147	16,8
527,573	14,3
527,998	14,9
528,424	13,5
528,849	18,5
529,275	32,3
529,7	12,5
530,126	16,5
530,551	9,3
530,976	16,7
531,402	12,8
531,827	23,2
532,252	10,2
532,677	21,1
533,102	19,9
533,527	23,1
533,952	21,1
534,377	22,5
534,801	22,3
535,226	26,5
535,651	21,3
536,076	19,5
536,5	23,8
536,925	17,9
537,349	23,3
537,773	17,7
538,198	14,6
538,622	21,3
539,046	13,5
539,471	16,6
539,895	15,5
540,319	10,8
540,743	14,4
541,167	22,6
541,591	17
542,015	21,9
542,438	20,3
542,862	17,2
543,286	24,4
543,71	16,2
544,133	32,9
544,557	12,2
544,98	18,4
545,404	20
545,827	18,1
546,25	16,4
546,674	23,6
547,097	20,2
547,52	11,4
547,943	19,8
548,366	19,9
548,789	20,4
549,212	19,3
549,635	21,9
550,058	18,7
550,481	16,4
550,903	16,7
551,326	18,4
551,749	8,4
552,171	23
552,594	21,1
553,016	12,5
553,438	12,1
553,861	27,9
554,283	22,7
554,705	17
555,128	16,9
555,55	19,9
555,972	24,3
556,394	19,4
556,816	9,9
557,238	24,4
557,659	11,8
558,081	15,3
558,503	18,4
558,925	22,4
559,346	15,8
559,768	21,9
560,189	21,9
560,611	28,2
561,032	20,1
561,454	14,5
561,875	17
562,296	13,3
562,718	9,6
563,139	11,6
563,56	11,1
563,981	9,5
564,402	18,8
564,823	22,5
565,244	27,1
565,664	11,4
566,085	18,5
566,506	17,5
566,927	22,1
567,347	19,8
567,768	2,6
568,188	17,5
568,609	22,3
569,029	17,7
569,449	19
569,87	15,6
570,29	15,7
570,71	9,5
571,13	10,8
571,55	18,7
571,97	23,6
572,39	23
572,81	17,1
573,23	15
573,65	8,8
574,069	18,6
574,489	13,7
574,909	13,4
575,328	22,2
575,748	9,2
576,167	20,2
576,587	12,9
577,006	8,9
577,425	21,2
577,844	11
578,264	20,4
578,683	18
579,102	15,9
579,521	23,5
579,94	16,3
580,359	12,4
580,778	16,5
581,196	23,7
581,615	12,9
582,034	18,9
582,452	10
582,871	7,9
583,29	16,1
583,708	30,9
584,126	28,2
584,545	20,3
584,963	17,5
585,381	29,2
585,8	24,5
586,218	19,1
586,636	12,5
587,054	23,7
587,472	20,8
587,89	21,8
588,308	26,8
588,725	27,3
589,143	13,4
589,561	15,8
589,979	14,8
590,396	12,8
590,814	8,7
591,231	19,2
591,649	16,6
592,066	16,7
592,483	19,3
592,901	16,3
593,318	24,2
593,735	11,7
594,152	25,4
594,569	10,6
594,986	21,8
595,403	23,5
595,82	8,3
596,237	19,7
596,654	25,2
597,07	7,1
597,487	27,9
597,904	19,1
598,32	21,4
598,737	19,3
599,153	17,1
599,57	14,4
599,986	20,9
600,402	17,9
600,818	15,1
601,235	21,3
601,651	17,4
602,067	25,4
602,483	27,6
602,899	16,8
603,315	14,2
603,73	15,4
604,146	24,6
604,562	20,5
604,978	15
605,393	26,7
605,809	18,2
606,224	8,3
606,64	13,7
607,055	21,9
607,471	24,3
607,886	15,4
608,301	9
608,716	19,8
609,131	10
609,547	12,9
609,962	17,9
610,377	16,9
610,791	16,2
611,206	8,4
611,621	8,6
612,036	13,6
612,451	21,4
612,865	9
613,28	22,4
613,694	21,5
614,109	23,7
614,523	23
614,938	13,1
615,352	17
615,766	18
616,18	16,3
616,595	26,5
617,009	21,9
617,423	15,3
617,837	20,6
618,251	11,5
618,664	25,3
619,078	12,6
619,492	13,6
619,906	16
620,319	20,2
620,733	17,7
621,146	17,3
621,56	19,5
621,973	22
622,387	15
622,8	22,7
623,213	26,5
623,627	18,2
624,04	28
624,453	21,4
624,866	21,3
625,279	28,9
625,692	28,7
626,105	25,1
626,518	33,8
626,93	23,5
627,343	38
627,756	27,9
628,168	29,5
628,581	29
628,993	42,8
629,406	35,4
629,818	37,3
630,231	45,2
630,643	37,6
631,055	25,7
631,467	33,8
631,879	40,1
632,291	40,1
632,703	44
633,115	52,2
633,527	49,2
633,939	53,3
634,351	62,9
634,763	61,6
635,174	57,6
635,586	59,1
635,997	65,3
636,409	74,3
636,82	79,2
637,232	72
637,643	77,1
638,054	78,9
638,466	77,9
638,877	88,5
639,288	78,8
639,699	91,7
640,11	86
640,521	95,5
640,932	98,7
641,343	89
641,753	93,2
642,164	97
642,575	106
642,986	102,1
643,396	106,3
643,807	108,5
644,217	110,3
644,627	105,8
645,038	112,1
645,448	110,7
645,858	114,5
646,269	113,9
646,679	97,6
647,089	99,7
647,499	98,6
647,909	99,3
648,319	93,7
648,728	96,7
649,138	79,9
649,548	82
649,958	87,9
650,367	84,3
650,777	82,2
651,186	90,8
651,596	68,4
652,005	73,7
652,415	61,4
652,824	64,7
653,233	56
653,642	70,3
654,052	65,8
654,461	75,4
654,87	75,1
655,279	64,8
655,688	60,7
656,096	59,5
656,505	63,1
656,914	65,7
657,323	59,1
657,731	62,4
658,14	54
658,548	59,7
658,957	70,3
659,365	53,2
659,774	66,4
660,182	55,3
660,59	62,9
660,998	60,9
661,407	70
661,815	64,1
662,223	54,5
662,631	47,4
663,039	54
663,446	67,4
663,854	54,2
664,262	44,4
664,67	50,3
665,077	46,5
665,485	47,4
665,892	41,8
666,3	43,3
666,707	44,1
667,115	45,4
667,522	44,6
667,929	40,6
668,337	42,6
668,744	46,9
669,151	41,5
669,558	36,8
669,965	32,4
670,372	29,3
670,779	31,2
671,185	34,5
671,592	30,2
671,999	34,4
672,405	27,3
672,812	25,7
673,219	36,3
673,625	23,9
674,032	22,2
674,438	23,6
674,844	18,9
675,25	26,8
675,657	29
676,063	21,5
676,469	12,2
676,875	10,1
677,281	21,3
677,687	24,9
678,093	18,9
678,499	18,1
678,904	23,9
679,31	18,3
679,716	18,8
680,121	24,3
680,527	9,9
680,932	19,4
681,338	17,6
681,743	17,6
682,148	11,1
682,554	17,4
682,959	22,2
683,364	14,1
683,769	14
684,174	11,8
684,579	7,7
684,984	13,8
685,389	12
685,794	13,3
686,199	18,3
686,603	17
687,008	15,1
687,413	13,8
687,817	23,6
688,222	18
688,626	12,3
689,03	7,1
689,435	9,9
689,839	10,2
690,243	20,7
690,647	11,2
691,051	16,3
691,456	15,9
691,859	16,5
692,263	15,3
692,667	17,9
693,071	11
693,475	13,5
693,879	16,3
694,282	16,8
694,686	18,7
695,089	20,4
695,493	3,1
695,896	18,6
696,3	19,8
696,703	14,7
697,106	14,2
697,509	13,6
697,913	21,1
698,316	18,7
698,719	18,5
699,122	16,3
699,525	20,4
699,928	11,4
700,33	11,9
700,733	11,2
701,136	23,3
701,539	18,4
701,941	15
702,344	17,9
702,746	13,1
703,149	17,2
703,551	17,1
703,953	22,1
704,356	13,6
704,758	12,7
705,16	22,2
705,562	20
705,964	11,5
706,366	13,4
706,768	15,6
707,17	15,6
707,572	12,3
707,973	19,9
708,375	15,5
708,777	17,3
709,178	15
709,58	14,4
709,981	13,8
710,383	18,7
710,784	13,3
711,186	7,3
711,587	23,6
711,988	17,5
712,389	9,8
712,79	19,7
713,191	18,9
713,592	10,3
713,993	17,1
714,394	17,1
714,795	11,3
715,196	10,2
715,596	11
715,997	14,7
716,398	13,2
716,798	18,4
717,199	8,4
717,599	9,7
718	8,6
718,4	14,2
718,8	16,3
719,2	15
719,6	12,8
720,001	5,7
720,401	14,3
720,801	15,7
721,201	12,3
721,6	18,5
722	14,1
722,4	17,8
722,8	15,3
723,199	13,9
723,599	11,9
723,998	11,6
724,398	14,5
724,797	9,9
725,197	16,7
725,596	17,7
725,995	18,7
726,394	12,7
726,794	16,3
727,193	24,3
727,592	19,6
727,991	16,8
728,39	7,6
728,789	18,8
729,187	18,1
729,586	9,9
729,985	18,9
730,383	20,8
730,782	5,9
731,181	21,8
731,579	21,1
731,977	20,4
732,376	15
732,774	16,8
733,172	23,1
733,571	12,4
733,969	21,1
734,367	23,9
734,765	23,6
735,163	26,4
735,561	13,5
735,959	20,6
736,356	21,6
736,754	14,8
737,152	19,7
737,55	18,2
737,947	27,6
738,345	33,5
738,742	26,9
739,14	21,1
739,537	25,6
739,934	24,6
740,331	26,5
740,729	23,8
741,126	25,2
741,523	25,4
741,92	31,4
742,317	30,1
742,714	32,5
743,111	26
743,507	35,9
743,904	35
744,301	31,8
744,697	27,5
745,094	35,6
745,491	33,5
745,887	31,1
746,283	39,9
746,68	40,9
747,076	18,9
747,472	28,4
747,869	39,3
748,265	29,1
748,661	40,7
749,057	40,3
749,453	35,5
749,849	35,9
750,244	26,6
750,64	30,8
751,036	31,1
751,432	36,1
751,827	28
752,223	22,1
752,618	40,9
753,014	50
753,409	35,7
753,805	36,2
754,2	32,7
754,595	41,6
754,99	38,2
755,385	41,6
755,78	45
756,175	42,3
756,57	43,8
756,965	41
757,36	41,6
757,755	40,3
758,15	48,5
758,544	48
758,939	50
759,334	57,1
759,728	51,5
760,122	57,6
760,517	54,8
760,911	55,9
761,306	57,3
761,7	47,5
762,094	44,9
762,488	48,9
762,882	39,3
763,276	47
763,67	44,5
764,064	34,1
764,458	48,5
764,852	47,4
765,245	53
765,639	48,7
766,033	47,2
766,426	60,2
766,82	71,6
767,213	61,8
767,606	64,9
768	60,6
768,393	61,8
768,786	59
769,179	64,8
769,572	60,9
769,966	69,6
770,358	70,6
770,751	63,3
771,144	56,8
771,537	59,9
771,93	64,4
772,323	71,2
772,715	60,8
773,108	59,4
773,5	65,9
773,893	60,5
774,285	59,1
774,678	52,7
775,07	37,1
775,462	36,7
775,854	39,7
776,247	40,9
776,639	28,9
777,031	35,1
777,423	27,4
777,815	23,6
778,207	38,4
778,598	33,6
778,99	39,3
779,382	34,3
779,773	42
780,165	54,6
780,557	52,6
780,948	58,5
781,339	66,7
781,731	54,8
782,122	69,5
782,513	65,9
782,905	68,8
783,296	76,6
783,687	64,5
784,078	67,6
784,469	65,9
784,86	67,8
785,251	58,2
785,641	59,1
786,032	62,5
786,423	57,8
786,813	60,3
787,204	54,2
787,594	59,4
787,985	47,5
788,375	49,3
788,766	46,7
789,156	41,9
789,546	31
789,936	41,1
790,326	34,5
790,717	31,1
791,107	36,2
791,497	27,8
791,886	23,8
792,276	24,7
792,666	26,5
793,056	24,3
793,445	31,6
793,835	27,2
794,225	27,7
794,614	30,8
795,004	37,5
795,393	20,9
795,782	40,5
796,172	28,5
796,561	36,9
796,95	21,4
797,339	23,8
797,728	49,2
798,117	30,2
798,506	16,4
798,895	28,5
799,284	27,8
799,673	29,1
800,061	22,9
800,45	29,1
800,839	26,9
801,227	26,5
801,616	17
802,004	22,7
802,392	22,4
802,781	20,3
803,169	27,9
803,557	28,5
803,945	32
804,333	19,5
804,721	16,1
805,109	11,2
805,497	11,7
805,885	17
806,273	30
806,661	10,8
807,048	25,2
807,436	19
807,824	9,2
808,211	17,8
808,599	32,4
808,986	18,1
809,373	16,2
809,761	19,7
810,148	19,1
810,535	23,5
810,922	20,8
811,309	21,8
811,696	11
812,083	28
812,47	17,7
812,857	22,1
813,244	14,4
813,631	14,2
814,017	16,2
814,404	17
814,791	25,2
815,177	16,7
815,564	23,8
815,95	9,5
816,336	13,8
816,723	17
817,109	16,6
817,495	19,4
817,881	10,2
818,267	4,3
818,653	14,1
819,039	15,8
819,425	21,6
819,811	15,5
820,197	22,6
820,582	16,8
820,968	8,4
821,354	14,8
821,739	22,2
822,125	20,2
822,51	6,8
822,895	16,3
823,281	24,1
823,666	19,1
824,051	15,4
824,436	17,9
824,822	16,1
825,207	17,3
825,592	23,2
825,976	20,1
826,361	20,8
826,746	18,6
827,131	25,6
827,516	21,2
827,9	9,7
828,285	13,6
828,669	11,7
829,054	23,1
829,438	26,5
829,823	27,4
830,207	12
830,591	8,1
830,975	20,2
831,36	22
831,744	10,2
832,128	10,1
832,512	15,1
832,895	23,6
833,279	13,9
833,663	14,9
834,047	15,3
834,431	10,8
834,814	27,6
835,198	24,4
835,581	14,9
835,965	13,8
836,348	17,5
836,731	12,3
837,115	15
837,498	23,4
837,881	20,9
838,264	16,1
838,647	21,8
839,03	14
839,413	11,1
839,796	15,5
840,179	16,2
840,562	16,7
840,944	25,1
841,327	14,4
841,71	8,5
842,092	18,3
842,475	18,7
842,857	12,9
843,24	13,7
843,622	14,7
844,004	20,2
844,386	18,4
844,769	9,9
845,151	16,8
845,533	18,8
845,915	13,3
846,297	20,1
846,678	18,3
847,06	13,2
847,442	8,2
847,824	20
848,205	17,7
848,587	6,2
848,968	12,6
849,35	20,8
849,731	2,6
850,113	8,4
850,494	1,8
850,875	3,4
851,256	11,6
851,638	16,8
852,019	15,5
852,4	21,3
852,781	12,3
853,161	14,9
853,542	19,6
853,923	17,6
854,304	16,7
854,685	12
855,065	15,5
855,446	22,7
855,826	14,3
856,207	18,7
856,587	13,6
856,967	13,3
857,348	12,6
857,728	21,4
858,108	17,5
858,488	11,1
858,868	21,7
859,248	12,8
859,628	20,5
860,008	10,8
860,388	14,9
860,768	18,7
861,147	14,7
861,527	15,3
861,907	12
862,286	22,3
862,666	15,8
863,045	27,3
863,424	27,2
863,804	20,5
864,183	10
864,562	17,7
864,941	28,3
865,32	29,2
865,699	13,1
866,078	10,6
866,457	25,2
866,836	17,5
867,215	25,1
867,594	8,2
867,972	22
868,351	20,9
868,729	20,8
869,108	22,6
869,486	16,8
869,865	16,3
870,243	10,4
870,621	10
871	23,4
871,378	19,5
871,756	17,3
872,134	16,5
872,512	27,9
872,89	25,7
873,268	15,6
873,646	10,2
874,023	16,5
874,401	18,5
874,779	18,5
875,156	13,7
875,534	12,5
875,911	13,2
876,289	12,5
876,666	22,5
877,043	18,1
877,421	8,9
877,798	17,9
878,175	11,4
878,552	10,9
878,929	16,9
879,306	14,1
879,683	16,9
880,06	15,3
880,437	17,2
880,813	18,9
881,19	34,6
881,567	24,1
881,943	14,7
882,32	19,7
882,696	6,2
883,073	32,3
883,449	6,6
883,825	20,6
884,202	13,6
884,578	6,4
884,954	15
885,33	7,1
885,706	11,5
886,082	13,2
886,458	9,3
886,834	20,5
887,209	12,1
887,585	33,2
887,961	12,8
888,336	30,7
888,712	17,4
889,087	12,3
889,463	15,7
889,838	15,3
890,213	29
890,589	5,4
890,964	14,8
891,339	13,4
891,714	25,2
892,089	11,4
892,464	22,5
892,839	14
893,214	21,2
893,589	9,7
893,963	12,5
894,338	9,1
894,713	7
895,087	21,1
895,462	8,4
895,836	16,2
896,211	17,2
896,585	11,9
896,959	12,5
897,334	13,5
897,708	14,2
898,082	28,4
898,456	23,4
898,83	23,8
899,204	22,9
899,578	24,8
899,952	22,2
900,325	18,3
900,699	20,4
901,073	17,5
901,446	12,9
901,82	19,1
902,193	5,3
902,567	4,6
902,94	11,7
903,313	14,8
903,687	10,5
904,06	17,6
904,433	26,8
904,806	27,1
905,179	17,6
905,552	24,9
905,925	29
906,298	15,7
906,671	25,3
907,043	28
907,416	29
907,789	25,1
908,161	31,2
908,534	18,3
908,906	27,2
909,279	13,9
909,651	28
910,023	24,2
910,396	17,2
910,768	29,9
911,14	27,3
911,512	23
911,884	25,1
912,256	29,1
912,628	28,8
912,999	20,6
913,371	34,5
913,743	29,4
914,115	27,1
914,486	19,6
914,858	33,2
915,229	31,9
915,601	29
915,972	20,5
916,343	24,5
916,715	31,7
917,086	15,3
917,457	35,1
917,828	32,8
918,199	29,5
918,57	22,6
918,941	26,9
919,312	22,5
919,682	25,5
920,053	22,2
920,424	37,7
920,794	23,9
921,165	15,7
921,536	33,1
921,906	26,2
922,276	37,4
922,647	37,8
923,017	24,8
923,387	30,7
923,757	39,9
924,127	21,7
924,497	27,2
924,867	24,7
925,237	28,6
925,607	19,6
925,977	22,6
926,347	22
926,716	24,5
927,086	23
927,456	28
927,825	26,4
928,195	26
928,564	30,6
928,933	22,7
929,303	26,4
929,672	24
930,041	17,9
930,41	23,1
930,779	19,7
931,148	27,9
931,517	21,8
931,886	41,9
932,255	24,1
932,624	18,2
932,993	32,5
933,361	30
933,73	40,7
934,098	29,2
934,467	27,7
934,835	28,6
935,204	33,6
935,572	37,7
935,94	22,7
936,308	29,4
936,677	24,7
937,045	28,7
937,413	30,9
937,781	25,9
938,149	27,5
938,516	35
938,884	23,8
939,252	45,7
939,62	34,1
939,987	31
940,355	27
940,722	22,9
941,09	27,3
941,457	36,2
941,825	30,6
942,192	27,4
942,559	23,8
942,926	20,8
943,293	20,4
943,66	25,2
944,027	29,1
944,394	23,1
944,761	31
945,128	25
945,495	33,3
945,861	29,3
946,228	31,6
946,595	35,6
946,961	26,5
947,328	30,8
947,694	9,6
948,06	51,5
948,427	23,6
948,793	31,5
949,159	29,2
949,525	30,2
949,891	21,4
950,257	23,5
950,623	26,7
950,989	30,2
951,355	34,4
951,721	26
952,087	32,8
952,452	23,4
952,818	26,8
953,183	27
953,549	34,1
953,914	20,8
954,28	28,6
954,645	27,8
955,01	22,9
955,375	15,7
955,741	27,9
956,106	32,1
956,471	19,9
956,836	31,1
957,201	36
957,566	23,6
957,93	24,6
958,295	24,4
958,66	21,8
959,024	27
959,389	25,5
959,753	27,5
960,118	15,7
960,482	22,1
960,847	24,2
961,211	19,8
961,575	22,8
961,939	18,8
962,303	20,1
962,667	24,9
963,031	24,6
963,395	16,5
963,759	10,6
964,123	20,2
964,487	23,7
964,851	23,9
965,214	14,1
965,578	14,9
965,941	10,4
966,305	13,2
966,668	19,7
967,032	20,9
967,395	18,1
967,758	23,2
968,121	8,9
968,484	20,3
968,847	20,3
969,21	14
969,573	25,4
969,936	22,7
970,299	15,6
970,662	21,7
971,025	16,4
971,387	25,5
971,75	26,2
972,112	27,7
972,475	9,6
972,837	19,6
973,2	13,9
973,562	19,3
973,924	29,6
974,286	22,2
974,649	14,1
975,011	27,2
975,373	24,6
975,735	17,4
976,097	21,6
976,458	24,6
976,82	23,5
977,182	20,1
977,544	19,7
977,905	17,4
978,267	28,6
978,628	25,4
978,99	20,1
979,351	11,4
979,712	19,4
980,074	30,2
980,435	22,6
980,796	35,2
981,157	5,4
981,518	18,1
981,879	16,2
982,24	20,1
982,601	24,2
982,962	15,4
983,323	18
983,683	23,9
984,044	17,4
984,404	9,5
984,765	12,5
985,125	20,9
985,486	12,1
985,846	11,5
986,206	15,9
986,567	17,1
986,927	10,6
987,287	21,6
987,647	23
988,007	16,6
988,367	6,8
988,727	15,6
989,087	21,2
989,446	15,9
989,806	20,4
990,166	17,1
990,525	25,1
990,885	12,4
991,244	18
991,604	11,6
991,963	19,8
992,322	22,7
992,682	20,9
993,041	14,6
993,4	24,3
993,759	16,5
994,118	23,8
994,477	14,2
994,836	21,1
995,195	15,9
995,553	11,5
995,912	22,5
996,271	12,3
996,629	15,3
996,988	14,3
997,346	23,5
997,705	19,4
998,063	10,6
998,422	18,5
998,78	16,7
999,138	22,6
999,496	24,7
999,854	22,4
1000,212	13
1000,57	13,2
1000,928	25,7
1001,286	17,5
1001,644	18,3
1002,001	13,2
1002,359	17,4
1002,717	10,2
1003,074	13,7
1003,432	17,9
1003,789	17,6
1004,147	9,8
1004,504	15,2
1004,861	19,4
1005,218	14,8
1005,576	17,8
1005,933	16,1
1006,29	19,9
1006,647	12,3
1007,004	20,6
1007,36	25,1
1007,717	12,8
1008,074	8,3
1008,431	21,6
1008,787	13,5
1009,144	11,2
1009,5	19,6
1009,857	22,1
1010,213	9,7
1010,569	19,5
1010,926	9,4
1011,282	17,8
1011,638	23,9
1011,994	19,9
1012,35	20,1
1012,706	25
1013,062	13,5
1013,418	21,3
1013,774	21,2
1014,13	13,7
1014,485	25,3
1014,841	24,5
1015,197	5
1015,552	13,1
1015,907	22,2
1016,263	16,1
1016,618	19,5
1016,974	18,8
1017,329	14,8
1017,684	20,5
1018,039	14,2
1018,394	16,3
1018,749	11,4
1019,104	15,3
1019,459	15,8
1019,814	13,2
1020,168	16,8
1020,523	9,9
1020,878	16,5
1021,232	17,7
1021,587	8,5
1021,941	9,7
1022,296	10,3
1022,65	18,1
1023,004	18,1
1023,359	23,8
1023,713	15,9
1024,067	19,1
1024,421	15,1
1024,775	20,3
1025,129	19,7
1025,483	22,6
1025,837	13,3
1026,19	17,7
1026,544	4,1
1026,898	17,1
1027,251	20,1
1027,605	13,8
1027,958	13,8
1028,312	15,7
1028,665	11,5
1029,018	11,1
1029,372	7
1029,725	17,9
1030,078	9,6
1030,431	11,7
1030,784	10,9
1031,137	26,4
1031,49	22,3
1031,843	-1,2
1032,195	17,2
1032,548	16,5
1032,901	8
1033,253	8,6
1033,606	23,6
1033,958	18,3
1034,311	19,5
1034,663	21,3
1035,016	20,1
1035,368	19,5
1035,72	24,3
1036,072	11,6
1036,424	18,3
1036,776	23,2
1037,128	10,4
1037,48	22
