Data from 145mW_IR_0.3bar_Ar_wedges_0mm_File7__1__15-56-46-391.txt Node

Date: Thu Jan 06 15:56:46 CET 2022
User: fsatto
Spectrometer: OFX01956
Trigger mode: 0
Integration Time (sec): 5,000000E-3
Scans to average: 20
Nonlinearity correction enabled: false
Boxcar width: 0
Storing dark spectrum: false
XAxis mode: Wavelengths
Number of Pixels in Spectrum: 2136
>>>>>Begin Spectral Data<<<<<	
158,236	2,7	
158,705	-6,35	
159,174	-2,6	
159,643	-3,1	
160,112	1,55	
160,582	-1,9	
161,051	4,45	
161,52	7,55	
161,988	-0,7	
162,457	-2,65	
162,926	-1,65	
163,395	-3,95	
163,864	1,2	
164,332	0,65	
164,801	4,3	
165,269	-1,2	
165,738	-4,85	
166,206	2,2	
166,675	-0,55	
167,143	-0,7	
167,612	1,55	
168,08	-2,7	
168,548	0,4	
169,016	-3,6	
169,484	-4,85	
169,952	1,4	
170,42	-0,45	
170,888	-5,1	
171,356	-5,2	
171,824	0,95	
172,292	-5,35	
172,759	6,35	
173,227	0,85	
173,695	-1,55	
174,162	-0,65	
174,63	6,8	
175,097	4,25	
175,565	0,9	
176,032	-3,4	
176,499	-1,1	
176,967	-0,1	
177,434	-1,4	
177,901	3,05	
178,368	-5,65	
178,835	-7,1	
179,302	8,05	
179,769	-1,5	
180,236	-0,2	
180,703	-1,35	
181,17	-2,8	
181,637	-1,1	
182,103	-4,05	
182,57	3	
183,036	2,35	
183,503	-5,55	
183,97	-0,7	
184,436	-2,3	
184,902	-0,25	
185,369	-2,15	
185,835	3,5	
186,301	2,55	
186,767	-3,45	
187,234	-5,55	
187,7	-0,55	
188,166	0,75	
188,632	-6,75	
189,098	0,3	
189,563	3,95	
190,029	0,8	
190,495	-0,4	
190,961	-3,55	
191,426	3,5	
191,892	3,75	
192,358	2,15	
192,823	-1,3	
193,289	3,9	
193,754	-5,4	
194,219	-3,35	
194,685	3,05	
195,15	-0,95	
195,615	0,3	
196,08	-1,3	
196,545	-4,3	
197,01	5,45	
197,475	3,1	
197,94	1,7	
198,405	0,65	
198,87	0,05	
199,335	-5,05	
199,8	-1,55	
200,264	85,35	
200,729	89,25	
201,193	93,95	
201,658	92,1	
202,122	97	
202,587	101,25	
203,051	106,65	
203,516	109,7	
203,98	113,95	
204,444	109,25	
204,908	106,95	
205,372	115,1	
205,836	122,65	
206,3	133,75	
206,764	129,65	
207,228	144,75	
207,692	151,45	
208,156	165,3	
208,62	162,75	
209,083	190,35	
209,547	209,1	
210,011	220,3	
210,474	241	
210,938	272,45	
211,401	295,65	
211,864	331,85	
212,328	356,3	
212,791	408,2	
213,254	483,6	
213,717	542,5	
214,181	605,8	
214,644	676,55	
215,107	781,5	
215,57	881,6	
216,033	1018,7	
216,495	1116,4	
216,958	1217,45	
217,421	1409,35	
217,884	1571,65	
218,346	1779,2	
218,809	1933,15	
219,272	1963,3	
219,734	2085,8	
220,196	2375,5	
220,659	2666,6	
221,121	2923,9	
221,584	3228,55	
222,046	3376,5	
222,508	3562,7	
222,97	3908,65	
223,432	4116,6	
223,894	4416,25	
224,356	4905,8	
224,818	5156,25	
225,28	5451,35	
225,742	6017,55	
226,204	6463,3	
226,665	6815,4	
227,127	7176,65	
227,589	7482,15	
228,05	8159,05	
228,512	9378,05	
228,973	10622,85	
229,435	10672,75	
229,896	10410,3	
230,357	10337,6	
230,818	10965,45	
231,28	11897,55	
231,741	12152,35	
232,202	12462,45	
232,663	12446,9	
233,124	11785,85	
233,585	12329,1	
234,046	14085	
234,507	14953,15	
234,967	14588,75	
235,428	14382,2	
235,889	14026,25	
236,349	13826,05	
236,81	15022,95	
237,271	16417	
237,731	16719,5	
238,191	16482,15	
238,652	16170,85	
239,112	16354,9	
239,572	17261,1	
240,033	18174,7	
240,493	18291,75	
240,953	17722,6	
241,413	17155,5	
241,873	17054,55	
242,333	17127,3	
242,793	17774,15	
243,253	18644,05	
243,712	18437,5	
244,172	17287,85	
244,632	17307,4	
245,092	19053,15	
245,551	21818	
246,011	23982,8	
246,47	23369,7	
246,93	22681,65	
247,389	23406,05	
247,848	25414,75	
248,308	29332,6	
248,767	32380,85	
249,226	33504,2	
249,685	33634,8	
250,144	33508,9	
250,603	34456,3	
251,062	37237,95	
251,521	41735,95	
251,98	42559	
252,439	40866,6	
252,897	40076,8	
253,356	41675,6	
253,815	42708,6	
254,273	45321,7	
254,732	47850,6	
255,19	46353,65	
255,649	43434,35	
256,107	42949,8	
256,566	44988,05	
257,024	45754,15	
257,482	43869,75	
257,94	41359,35	
258,398	39933,55	
258,856	40138,05	
259,315	39872,35	
259,772	39192,35	
260,23	38038,5	
260,688	37804	
261,146	37815,8	
261,604	35321,85	
262,062	33978,8	
262,519	34806,35	
262,977	35054,5	
263,434	33815	
263,892	34110,55	
264,349	32969,45	
264,807	30255,75	
265,264	30145,95	
265,721	32050,4	
266,179	32403,7	
266,636	30130,2	
267,093	28281	
267,55	27572,75	
268,007	26753,1	
268,464	27056,55	
268,921	28002,85	
269,378	27166,05	
269,835	24164,35	
270,291	21888,15	
270,748	20341,8	
271,205	19719,9	
271,661	20303,5	
272,118	21133,8	
272,574	20300,85	
273,031	18645,05	
273,487	17425,95	
273,944	16782,65	
274,4	16372,2	
274,856	16488,4	
275,312	16818,9	
275,768	15986,05	
276,225	14694,9	
276,681	14575,5	
277,137	14571,35	
277,593	14006,4	
278,048	13112,55	
278,504	13007,45	
278,96	12674,7	
279,416	11617,15	
279,871	11003,7	
280,327	10705,2	
280,783	10694,55	
281,238	10853,65	
281,694	11044,5	
282,149	10773,3	
282,604	10216,25	
283,06	9732,8	
283,515	9376,25	
283,97	9253,25	
284,425	9068,3	
284,88	8782,4	
285,335	8505,5	
285,79	8276,25	
286,245	8221,1	
286,7	8164,7	
287,155	7794,3	
287,61	7791,65	
288,064	7963,85	
288,519	8079,3	
288,974	7932,35	
289,428	7598,7	
289,883	7160,6	
290,337	6757,8	
290,792	6579,45	
291,246	6534,2	
291,7	6549,35	
292,155	6324,65	
292,609	6074,4	
293,063	5723,05	
293,517	5262,35	
293,971	5098,25	
294,425	5110,65	
294,879	4990,3	
295,333	4563,65	
295,787	4274,45	
296,241	4028,85	
296,694	3747,8	
297,148	3458,25	
297,602	3213,1	
298,055	3136,2	
298,509	2993,2	
298,962	2710,45	
299,416	2468,45	
299,869	2267,6	
300,322	2085,25	
300,775	2032,6	
301,229	1981,75	
301,682	1939,9	
302,135	1828,55	
302,588	1746,95	
303,041	1715,6	
303,494	1665,85	
303,947	1559,35	
304,4	1451,85	
304,852	1460,25	
305,305	1381,95	
305,758	1322,8	
306,21	1242,85	
306,663	1204,7	
307,115	1162,55	
307,568	1158,35	
308,02	1106,4	
308,473	1071,5	
308,925	1050,45	
309,377	1012,25	
309,829	956,3	
310,282	915,65	
310,734	878,05	
311,186	864,25	
311,638	853,75	
312,09	819,7	
312,542	784,05	
312,993	718,55	
313,445	699,85	
313,897	680,4	
314,349	646,45	
314,8	630	
315,252	610	
315,703	570,6	
316,155	539,9	
316,606	525,85	
317,058	504,3	
317,509	482,9	
317,96	476,7	
318,411	443,3	
318,863	440,25	
319,314	413,2	
319,765	380,55	
320,216	372,7	
320,667	350,55	
321,117	331,8	
321,568	317,7	
322,019	294,6	
322,47	281,45	
322,921	270,85	
323,371	255,05	
323,822	244,8	
324,272	229,3	
324,723	210,35	
325,173	200,85	
325,623	181,95	
326,074	173,8	
326,524	148,3	
326,974	144,1	
327,424	152,8	
327,874	168,15	
328,325	229,6	
328,775	207,8	
329,224	157,7	
329,674	150,1	
330,124	133,6	
330,574	122,25	
331,024	119,05	
331,473	111,05	
331,923	99,3	
332,373	99,8	
332,822	92,4	
333,272	81,95	
333,721	79,65	
334,17	74,45	
334,62	69,1	
335,069	64,75	
335,518	61,25	
335,967	57	
336,416	57,75	
336,865	48,05	
337,314	45	
337,763	48,55	
338,212	41,35	
338,661	39,45	
339,11	36,7	
339,558	42,6	
340,007	36,15	
340,456	31,25	
340,904	30,95	
341,353	38,85	
341,801	29,05	
342,25	25,6	
342,698	28,45	
343,146	24,6	
343,595	23,75	
344,043	20,65	
344,491	22,95	
344,939	22,05	
345,387	20,65	
345,835	17,6	
346,283	20,25	
346,731	15,45	
347,179	20,1	
347,626	14,1	
348,074	23,05	
348,522	16,7	
348,969	14,9	
349,417	13,4	
349,865	26	
350,312	19,45	
350,759	10,3	
351,207	13,55	
351,654	7,65	
352,101	10,8	
352,548	8,4	
352,996	10,35	
353,443	13,4	
353,89	13,6	
354,337	19,7	
354,784	11,2	
355,231	6,8	
355,677	11,7	
356,124	9,7	
356,571	15,05	
357,018	12,35	
357,464	14	
357,911	15	
358,357	18,65	
358,804	5,05	
359,25	10,6	
359,696	1,3	
360,143	3,95	
360,589	11,1	
361,035	2,9	
361,481	8,2	
361,927	4,2	
362,373	-1,85	
362,819	12,5	
363,265	6,7	
363,711	10,5	
364,157	3,95	
364,603	5,85	
365,048	10	
365,494	4,3	
365,94	8	
366,385	4,25	
366,831	4,65	
367,276	11,8	
367,722	7,15	
368,167	5,05	
368,612	6,05	
369,057	4,4	
369,503	4,8	
369,948	3,5	
370,393	9,55	
370,838	5,4	
371,283	7,5	
371,728	9,95	
372,173	-1,75	
372,617	10,15	
373,062	11,3	
373,507	2	
373,951	9,8	
374,396	8,5	
374,841	1,9	
375,285	2,5	
375,729	5,75	
376,174	0,7	
376,618	10,5	
377,062	8,4	
377,507	7,65	
377,951	2	
378,395	1,05	
378,839	15	
379,283	7,3	
379,727	5,3	
380,171	5,15	
380,615	-0,05	
381,059	1,8	
381,502	8,1	
381,946	9,35	
382,39	7,05	
382,833	3,85	
383,277	9,1	
383,72	3,35	
384,164	2,25	
384,607	0,55	
385,05	12,2	
385,494	13,55	
385,937	9	
386,38	2,9	
386,823	4	
387,266	5,95	
387,709	2,95	
388,152	7,65	
388,595	7	
389,038	9,55	
389,481	5,6	
389,923	5,3	
390,366	6,35	
390,809	6,3	
391,251	8,85	
391,694	13,9	
392,136	6,7	
392,579	4,55	
393,021	-0,05	
393,463	6,55	
393,906	5,35	
394,348	4,4	
394,79	9,55	
395,232	15	
395,674	8,05	
396,116	15,3	
396,558	5,3	
397	7,15	
397,442	7,9	
397,884	10,2	
398,325	7,3	
398,767	5,8	
399,209	5,6	
399,65	14,25	
400,092	7,95	
400,533	7,15	
400,974	3,75	
401,416	6,7	
401,857	17,25	
402,298	16,85	
402,74	10,05	
403,181	11,8	
403,622	10,4	
404,063	12,15	
404,504	4,1	
404,945	10,95	
405,386	7,6	
405,826	2,35	
406,267	10,45	
406,708	14,65	
407,149	9,55	
407,589	7,1	
408,03	7	
408,47	9,45	
408,911	4,3	
409,351	8,65	
409,791	6,65	
410,232	5,7	
410,672	9,25	
411,112	13,7	
411,552	9,95	
411,992	11,1	
412,432	6,7	
412,872	7,85	
413,312	5	
413,752	4,5	
414,192	1,2	
414,632	18,25	
415,071	1,45	
415,511	4,55	
415,951	7,1	
416,39	6,6	
416,83	8,75	
417,269	11,25	
417,708	13,5	
418,148	10,7	
418,587	7,5	
419,026	5,05	
419,465	4,4	
419,904	8,6	
420,344	16,6	
420,783	11,05	
421,221	-2,1	
421,66	10,15	
422,099	10,5	
422,538	7,3	
422,977	8,5	
423,415	5,6	
423,854	4,45	
424,293	1,7	
424,731	9,05	
425,17	9,75	
425,608	14,1	
426,046	6,1	
426,485	-1,25	
426,923	8,05	
427,361	12,5	
427,799	4,6	
428,237	5,55	
428,675	2,3	
429,113	0,45	
429,551	6,75	
429,989	8,8	
430,427	4,05	
430,865	5,75	
431,303	8,35	
431,74	15,3	
432,178	23,95	
432,615	6,85	
433,053	7,45	
433,49	3,8	
433,928	14,7	
434,365	8,1	
434,802	7,8	
435,24	6	
435,677	3,7	
436,114	5,5	
436,551	6,3	
436,988	6,75	
437,425	4,05	
437,862	0,8	
438,299	9,3	
438,736	6,35	
439,172	16,25	
439,609	6,55	
440,046	7,15	
440,482	6,4	
440,919	9,85	
441,355	7,65	
441,792	3,55	
442,228	5,15	
442,665	13,8	
443,101	7,45	
443,537	7	
443,973	-1,05	
444,409	3,15	
444,845	-1,25	
445,281	8,05	
445,717	2,65	
446,153	6,65	
446,589	11,5	
447,025	10,1	
447,461	8,2	
447,896	4,85	
448,332	1,3	
448,768	-0,65	
449,203	10	
449,639	10,4	
450,074	-1,3	
450,509	-1,05	
450,945	6,65	
451,38	9,4	
451,815	9,9	
452,25	5,85	
452,685	-2,75	
453,12	13,35	
453,555	6,9	
453,99	7,85	
454,425	6,8	
454,86	-1,15	
455,295	12,95	
455,73	-6,7	
456,164	-10,55	
456,599	0,45	
457,033	8,1	
457,468	0,95	
457,902	8	
458,337	7,7	
458,771	13,5	
459,205	0,3	
459,64	0,65	
460,074	0,6	
460,508	3,65	
460,942	1,95	
461,376	25,6	
461,81	11,35	
462,244	6,15	
462,678	3,6	
463,112	9,75	
463,545	9,05	
463,979	8,05	
464,413	2,9	
464,846	9,15	
465,28	2,55	
465,713	9,5	
466,147	2,55	
466,58	6,75	
467,014	9,6	
467,447	12,7	
467,88	5,75	
468,313	6,95	
468,746	7,95	
469,179	10,35	
469,612	6	
470,045	6,95	
470,478	9,15	
470,911	7,45	
471,344	4,95	
471,777	9,6	
472,209	8,85	
472,642	7,2	
473,074	14,45	
473,507	10,3	
473,939	9,85	
474,372	12,8	
474,804	16,1	
475,236	15,1	
475,669	4,6	
476,101	10,6	
476,533	6,05	
476,965	16,8	
477,397	16,8	
477,829	10,75	
478,261	8,1	
478,693	2	
479,125	17,6	
479,557	17,35	
479,988	14,6	
480,42	14	
480,852	15,6	
481,283	11,5	
481,715	10,75	
482,146	12,35	
482,577	11,9	
483,009	4,9	
483,44	13,65	
483,871	13,65	
484,302	11,05	
484,734	8,7	
485,165	6,35	
485,596	8,5	
486,027	13,9	
486,457	12,4	
486,888	8,95	
487,319	10,05	
487,75	9,6	
488,181	14,5	
488,611	11,5	
489,042	8,85	
489,472	13	
489,903	9,95	
490,333	12,25	
490,764	-0,4	
491,194	7,5	
491,624	13,8	
492,054	10,05	
492,484	1,85	
492,915	10,8	
493,345	7,65	
493,775	12	
494,204	10,3	
494,634	5,05	
495,064	8,25	
495,494	7,85	
495,924	13,6	
496,353	6,3	
496,783	8,45	
497,212	8,45	
497,642	12,05	
498,071	3,9	
498,501	3,1	
498,93	4,3	
499,359	7,85	
499,789	10	
500,218	8,75	
500,647	4,15	
501,076	11,2	
501,505	8,4	
501,934	12,85	
502,363	6,05	
502,792	5,6	
503,221	7,25	
503,649	4,95	
504,078	6,05	
504,507	6,25	
504,935	5,6	
505,364	8,2	
505,792	3,65	
506,221	7,15	
506,649	4,2	
507,077	14,95	
507,506	7,2	
507,934	7,15	
508,362	3,5	
508,79	2,95	
509,218	9,45	
509,646	1,75	
510,074	5,2	
510,502	6,9	
510,93	2,45	
511,357	1,55	
511,785	4,9	
512,213	-1,5	
512,64	6,6	
513,068	15,2	
513,496	7,6	
513,923	4,35	
514,35	6,15	
514,778	-4,15	
515,205	-1,2	
515,632	-1,65	
516,059	2,9	
516,486	6,4	
516,914	3,65	
517,341	-1,7	
517,768	0,15	
518,194	4,3	
518,621	-0,75	
519,048	1,35	
519,475	1,15	
519,902	-4,95	
520,328	11,6	
520,755	5,5	
521,181	5,25	
521,608	3,1	
522,034	6,8	
522,461	2,85	
522,887	0,8	
523,313	-2,85	
523,739	6,15	
524,165	7,9	
524,592	12,3	
525,018	11,9	
525,444	4,75	
525,869	2,05	
526,295	8,85	
526,721	6,9	
527,147	0,2	
527,573	7,65	
527,998	3,55	
528,424	10,35	
528,849	3,95	
529,275	5,15	
529,7	1,95	
530,126	1,3	
530,551	4,3	
530,976	9,05	
531,402	-0,25	
531,827	2,4	
532,252	8	
532,677	-0,95	
533,102	7,3	
533,527	7,2	
533,952	8,7	
534,377	2,25	
534,801	3,65	
535,226	10,7	
535,651	13,45	
536,076	7,15	
536,5	4,95	
536,925	11,75	
537,349	10,55	
537,773	5,1	
538,198	13,95	
538,622	-0,6	
539,046	4,15	
539,471	0,35	
539,895	5,85	
540,319	7,45	
540,743	0,8	
541,167	6,65	
541,591	8,35	
542,015	1,05	
542,438	10,25	
542,862	3,6	
543,286	2,35	
543,71	-1,55	
544,133	4,4	
544,557	2,4	
544,98	10,05	
545,404	12,55	
545,827	10,65	
546,25	6,3	
546,674	-0,4	
547,097	8,35	
547,52	4,75	
547,943	2,4	
548,366	-0,2	
548,789	7,1	
549,212	1	
549,635	-2,05	
550,058	2,15	
550,481	4,7	
550,903	1,7	
551,326	1,55	
551,749	0,95	
552,171	-1,9	
552,594	10,95	
553,016	2,75	
553,438	2,45	
553,861	-3,45	
554,283	-1	
554,705	4,9	
555,128	-4,8	
555,55	3,75	
555,972	-1,35	
556,394	8,5	
556,816	9,2	
557,238	1,75	
557,659	1,4	
558,081	-0,4	
558,503	1,25	
558,925	-7,05	
559,346	-3,3	
559,768	5,9	
560,189	0,05	
560,611	5,35	
561,032	6,45	
561,454	-0,5	
561,875	-1,85	
562,296	5,6	
562,718	-0,1	
563,139	2,4	
563,56	0,3	
563,981	8,25	
564,402	-5,9	
564,823	-4,9	
565,244	8,8	
565,664	0,4	
566,085	1,3	
566,506	2,15	
566,927	-3,05	
567,347	5,55	
567,768	6,6	
568,188	7,05	
568,609	5,3	
569,029	-1,7	
569,449	-1,2	
569,87	-0,4	
570,29	0,5	
570,71	-2,8	
571,13	-3,2	
571,55	-2	
571,97	4,9	
572,39	1	
572,81	-2,05	
573,23	2,55	
573,65	6,8	
574,069	3,1	
574,489	-0,75	
574,909	0,5	
575,328	2,75	
575,748	3,65	
576,167	-3	
576,587	-2,8	
577,006	0,6	
577,425	5,3	
577,844	5,65	
578,264	2,35	
578,683	1,95	
579,102	-0,3	
579,521	6,55	
579,94	-14,3	
580,359	-1,8	
580,778	5,7	
581,196	0,7	
581,615	4,1	
582,034	3,2	
582,452	6,2	
582,871	13,15	
583,29	0	
583,708	-0,25	
584,126	4,9	
584,545	7,25	
584,963	7,3	
585,381	1,85	
585,8	2,55	
586,218	-3,65	
586,636	-1,05	
587,054	7,1	
587,472	6,4	
587,89	-0,2	
588,308	3,35	
588,725	4,55	
589,143	0,1	
589,561	2,3	
589,979	2,1	
590,396	1,4	
590,814	5,15	
591,231	2,05	
591,649	-3,45	
592,066	6,1	
592,483	-0,1	
592,901	2,4	
593,318	-0,9	
593,735	-0,85	
594,152	-2,15	
594,569	6,05	
594,986	2,3	
595,403	3,5	
595,82	10,6	
596,237	5,15	
596,654	1,25	
597,07	5,55	
597,487	4,7	
597,904	4,05	
598,32	1,75	
598,737	-2,2	
599,153	4,6	
599,57	-5,2	
599,986	4,45	
600,402	2,1	
600,818	1,7	
601,235	8,7	
601,651	1,15	
602,067	0,25	
602,483	-10,05	
602,899	3	
603,315	1	
603,73	2,8	
604,146	2,2	
604,562	-7,8	
604,978	3,55	
605,393	-3,05	
605,809	2,2	
606,224	-0,05	
606,64	-1,25	
607,055	0,9	
607,471	8,1	
607,886	8,3	
608,301	8,1	
608,716	1,65	
609,131	9,6	
609,547	4,85	
609,962	10,9	
610,377	14,55	
610,791	15,45	
611,206	11,55	
611,621	7,4	
612,036	17,5	
612,451	15,9	
612,865	21,25	
613,28	25,45	
613,694	22	
614,109	26,85	
614,523	24,2	
614,938	30,2	
615,352	28,5	
615,766	30,4	
616,18	35,55	
616,595	39,9	
617,009	43,25	
617,423	45,4	
617,837	45,75	
618,251	49,7	
618,664	54,85	
619,078	60,3	
619,492	70,75	
619,906	63,4	
620,319	65,6	
620,733	66,25	
621,146	70,6	
621,56	70,4	
621,973	75,7	
622,387	77,1	
622,8	75,95	
623,213	80	
623,627	80,7	
624,04	82,1	
624,453	87,4	
624,866	89,95	
625,279	93,55	
625,692	95,4	
626,105	106,95	
626,518	109,3	
626,93	100,6	
627,343	110,85	
627,756	113,65	
628,168	111,85	
628,581	117,7	
628,993	130,3	
629,406	126,65	
629,818	136,6	
630,231	139,2	
630,643	147,25	
631,055	156	
631,467	161,8	
631,879	177,95	
632,291	176,65	
632,703	203,45	
633,115	216	
633,527	227,55	
633,939	234,35	
634,351	243,35	
634,763	275,65	
635,174	296,6	
635,586	315,75	
635,997	320,8	
636,409	348,9	
636,82	359,15	
637,232	368,15	
637,643	382,3	
638,054	389,15	
638,466	400,8	
638,877	413,65	
639,288	423,85	
639,699	437,45	
640,11	438,55	
640,521	424,35	
640,932	435,95	
641,343	439,95	
641,753	457,7	
642,164	445,2	
642,575	462,85	
642,986	470,6	
643,396	481,1	
643,807	477,85	
644,217	491,55	
644,627	481,3	
645,038	483,85	
645,448	472,15	
645,858	474,6	
646,269	494,8	
646,679	481,5	
647,089	491,9	
647,499	492,45	
647,909	471,55	
648,319	465,05	
648,728	445,7	
649,138	433	
649,548	442,65	
649,958	424	
650,367	399,65	
650,777	396,8	
651,186	390,5	
651,596	375,9	
652,005	367	
652,415	358,45	
652,824	347,45	
653,233	332,65	
653,642	324,8	
654,052	320,9	
654,461	329,65	
654,87	330,9	
655,279	319,15	
655,688	321,25	
656,096	331,2	
656,505	305,65	
656,914	306,5	
657,323	304,3	
657,731	314,85	
658,14	305,6	
658,548	309,05	
658,957	320,65	
659,365	316,5	
659,774	295,35	
660,182	295,75	
660,59	302,05	
660,998	284,3	
661,407	268,4	
661,815	277,25	
662,223	273,6	
662,631	274,15	
663,039	268,1	
663,446	252,65	
663,854	246	
664,262	242,35	
664,67	231,15	
665,077	228,85	
665,485	223	
665,892	212,9	
666,3	203,4	
666,707	206,25	
667,115	190,15	
667,522	183,15	
667,929	166,05	
668,337	160,25	
668,744	158,45	
669,151	157,1	
669,558	148,65	
669,965	141,85	
670,372	134,95	
670,779	130,1	
671,185	114,25	
671,592	109,55	
671,999	95,95	
672,405	93,2	
672,812	96,15	
673,219	82,9	
673,625	80,3	
674,032	71,2	
674,438	69,5	
674,844	60,35	
675,25	54,25	
675,657	48,6	
676,063	49,1	
676,469	39,65	
676,875	33,7	
677,281	31,45	
677,687	35,15	
678,093	28,9	
678,499	30,05	
678,904	20,5	
679,31	24,05	
679,716	14,55	
680,121	21,05	
680,527	15,25	
680,932	12,3	
681,338	11	
681,743	10,65	
682,148	5,4	
682,554	5,7	
682,959	6,45	
683,364	11,95	
683,769	6,85	
684,174	11,4	
684,579	3,35	
684,984	9,4	
685,389	4,85	
685,794	6	
686,199	8,1	
686,603	3,2	
687,008	0,8	
687,413	3	
687,817	4,85	
688,222	1,35	
688,626	-10,35	
689,03	-0,65	
689,435	5,55	
689,839	-5,75	
690,243	1,25	
690,647	3,75	
691,051	-1,55	
691,456	0,2	
691,859	7,65	
692,263	-3,2	
692,667	5,95	
693,071	4,2	
693,475	9,3	
693,879	8,15	
694,282	1,7	
694,686	3,2	
695,089	1,5	
695,493	4,95	
695,896	3,05	
696,3	12,8	
696,703	3,1	
697,106	-0,25	
697,509	1,4	
697,913	3,7	
698,316	0,3	
698,719	1,95	
699,122	-0,8	
699,525	6,2	
699,928	7,15	
700,33	-4,7	
700,733	0,65	
701,136	3,3	
701,539	4,45	
701,941	5,45	
702,344	1,85	
702,746	7,75	
703,149	3,15	
703,551	1,55	
703,953	-4,75	
704,356	-2,65	
704,758	0,45	
705,16	1	
705,562	0,2	
705,964	5,2	
706,366	1,2	
706,768	-1	
707,17	3,5	
707,572	-0,2	
707,973	3,05	
708,375	0,25	
708,777	1,95	
709,178	-0,15	
709,58	-1,6	
709,981	4,4	
710,383	-0,05	
710,784	-7,4	
711,186	-5,65	
711,587	1,8	
711,988	-1,9	
712,389	2,4	
712,79	-0,25	
713,191	-2,2	
713,592	-0,25	
713,993	5,45	
714,394	3,35	
714,795	0,2	
715,196	7,7	
715,596	-3,9	
715,997	2,35	
716,398	2,3	
716,798	3,05	
717,199	-6,35	
717,599	-0,1	
718	2,5	
718,4	1,05	
718,8	-2,35	
719,2	6,3	
719,6	4,8	
720,001	4,2	
720,401	3,75	
720,801	-2,55	
721,201	3,1	
721,6	5,05	
722	6,6	
722,4	7,75	
722,8	6,85	
723,199	5,2	
723,599	16,45	
723,998	8,7	
724,398	15,6	
724,797	17,6	
725,197	9,55	
725,596	17,55	
725,995	22,8	
726,394	24,95	
726,794	25,55	
727,193	38,35	
727,592	32,55	
727,991	34,2	
728,39	44,65	
728,789	39	
729,187	50,9	
729,586	45,75	
729,985	64,3	
730,383	71,15	
730,782	70,35	
731,181	78,95	
731,579	93,7	
731,977	102,2	
732,376	113,55	
732,774	126,6	
733,172	141,8	
733,571	151,95	
733,969	158,55	
734,367	173,2	
734,765	183,7	
735,163	194,8	
735,561	220,75	
735,959	246,65	
736,356	284,35	
736,754	289,75	
737,152	298,45	
737,55	337,05	
737,947	360,5	
738,345	389,55	
738,742	405,9	
739,14	404,55	
739,537	398,45	
739,934	409,9	
740,331	414,4	
740,729	411,55	
741,126	431	
741,523	441,85	
741,92	444,25	
742,317	462,7	
742,714	455,65	
743,111	472	
743,507	498	
743,904	506,9	
744,301	497,8	
744,697	490	
745,094	496,6	
745,491	493,25	
745,887	498,75	
746,283	489,5	
746,68	493,85	
747,076	483,2	
747,472	484,2	
747,869	489,6	
748,265	477,55	
748,661	457,15	
749,057	457,4	
749,453	452,6	
749,849	452,65	
750,244	462,15	
750,64	481,2	
751,036	477,5	
751,432	486,1	
751,827	474,1	
752,223	477,4	
752,618	462,8	
753,014	457,2	
753,409	478,15	
753,805	467,05	
754,2	478,65	
754,595	500,2	
754,99	494	
755,385	516,7	
755,78	530,2	
756,175	537,6	
756,57	542,65	
756,965	523,5	
757,36	523,35	
757,755	549,05	
758,15	557,55	
758,544	543,05	
758,939	551,75	
759,334	550,65	
759,728	559,6	
760,122	563,1	
760,517	602,6	
760,911	562,35	
761,306	554,9	
761,7	511,1	
762,094	465,85	
762,488	432,25	
762,882	397,45	
763,276	379,35	
763,67	357,2	
764,064	362,9	
764,458	372,8	
764,852	406,3	
765,245	445,05	
765,639	496,3	
766,033	543,85	
766,426	568	
766,82	580	
767,213	572,85	
767,606	572,55	
768	559,05	
768,393	541,3	
768,786	534,55	
769,179	528,75	
769,572	536,2	
769,966	525,75	
770,358	503,75	
770,751	504,6	
771,144	514,75	
771,537	498,75	
771,93	504,15	
772,323	522,2	
772,715	489	
773,108	475,95	
773,5	437,75	
773,893	387,8	
774,285	339,45	
774,678	282,05	
775,07	237	
775,462	189,65	
775,854	163,95	
776,247	143,7	
776,639	136,85	
777,031	133,05	
777,423	139,95	
777,815	162	
778,207	159,25	
778,598	176,9	
778,99	195,05	
779,382	206,35	
779,773	241,75	
780,165	275,9	
780,557	310,15	
780,948	334,6	
781,339	347,6	
781,731	353,05	
782,122	385,4	
782,513	378,65	
782,905	375,95	
783,296	371,4	
783,687	376,15	
784,078	342	
784,469	341,25	
784,86	321,2	
785,251	308,65	
785,641	291,25	
786,032	285,3	
786,423	268,9	
786,813	260,9	
787,204	261,4	
787,594	267,2	
787,985	269,1	
788,375	243,4	
788,766	220,4	
789,156	199,05	
789,546	180,6	
789,936	163,7	
790,326	155,75	
790,717	152,6	
791,107	144,6	
791,497	142,3	
791,886	133,5	
792,276	125,4	
792,666	122,7	
793,056	118,2	
793,445	110,45	
793,835	113,3	
794,225	115,3	
794,614	111,4	
795,004	97,9	
795,393	91,3	
795,782	92,4	
796,172	99,6	
796,561	104,1	
796,95	98,75	
797,339	95,7	
797,728	107,45	
798,117	100,65	
798,506	96,65	
798,895	95,75	
799,284	100,35	
799,673	109,1	
800,061	99,1	
800,45	94,15	
800,839	84,2	
801,227	76,1	
801,616	75,6	
802,004	74,05	
802,392	66,45	
802,781	66,6	
803,169	66,05	
803,557	63,45	
803,945	57	
804,333	47,3	
804,721	45,65	
805,109	45,5	
805,497	38	
805,885	36,3	
806,273	43,3	
806,661	38,25	
807,048	29,85	
807,436	33,65	
807,824	26,45	
808,211	27,95	
808,599	21,25	
808,986	25,95	
809,373	20,2	
809,761	22,1	
810,148	21,85	
810,535	32,2	
810,922	21,15	
811,309	19,95	
811,696	14,7	
812,083	23,35	
812,47	18,55	
812,857	17,9	
813,244	14,85	
813,631	16,7	
814,017	12	
814,404	19,6	
814,791	18,95	
815,177	13	
815,564	15,85	
815,95	18,35	
816,336	22,2	
816,723	15,2	
817,109	22,1	
817,495	16,85	
817,881	14,65	
818,267	13,45	
818,653	9,4	
819,039	14,6	
819,425	11	
819,811	17,3	
820,197	8	
820,582	15,45	
820,968	2,4	
821,354	9,75	
821,739	7,25	
822,125	8,15	
822,51	8,55	
822,895	3,6	
823,281	1,5	
823,666	5,6	
824,051	2,2	
824,436	-3,55	
824,822	1,55	
825,207	-1,1	
825,592	3,05	
825,976	3,95	
826,361	6,9	
826,746	0,5	
827,131	1,25	
827,516	2,45	
827,9	2,7	
828,285	-11,95	
828,669	7,6	
829,054	-3,6	
829,438	4,85	
829,823	0	
830,207	0,75	
830,591	-2,8	
830,975	7,45	
831,36	-0,3	
831,744	5,9	
832,128	-2,15	
832,512	3,25	
832,895	2,7	
833,279	5,75	
833,663	4,85	
834,047	3,85	
834,431	0,6	
834,814	-3,85	
835,198	-0,85	
835,581	1,1	
835,965	-3,55	
836,348	1,05	
836,731	5,75	
837,115	3,85	
837,498	0,65	
837,881	-2,2	
838,264	1,95	
838,647	4,15	
839,03	1,2	
839,413	-0,25	
839,796	-0,2	
840,179	-1,25	
840,562	0,4	
840,944	1,85	
841,327	-1,55	
841,71	5,7	
842,092	5,1	
842,475	-2,2	
842,857	1,8	
843,24	1,85	
843,622	0,95	
844,004	-3,2	
844,386	6,95	
844,769	6,85	
845,151	0,45	
845,533	-3,9	
845,915	1,9	
846,297	5,45	
846,678	5,45	
847,06	7,95	
847,442	4,55	
847,824	6,05	
848,205	3,25	
848,587	3,05	
848,968	-3,5	
849,35	4	
849,731	0,4	
850,113	-2,35	
850,494	1,1	
850,875	12,55	
851,256	-3,9	
851,638	1,25	
852,019	-4,2	
852,4	4,8	
852,781	3,9	
853,161	-8,25	
853,542	3,55	
853,923	-2,35	
854,304	-2,05	
854,685	3,65	
855,065	-1,8	
855,446	9,2	
855,826	-2,65	
856,207	-4,05	
856,587	-2,95	
856,967	3,1	
857,348	-1,45	
857,728	-4,15	
858,108	-0,25	
858,488	5,95	
858,868	1	
859,248	-4,65	
859,628	0,4	
860,008	-4,65	
860,388	-0,2	
860,768	1	
861,147	-0,6	
861,527	5,85	
861,907	1,75	
862,286	-2,2	
862,666	-3,15	
863,045	-3,85	
863,424	1,05	
863,804	6	
864,183	6,2	
864,562	-4,7	
864,941	1,35	
865,32	3,25	
865,699	-2	
866,078	-7,45	
866,457	-6,4	
866,836	8,8	
867,215	-4,55	
867,594	-2,1	
867,972	4,45	
868,351	-5,2	
868,729	2,05	
869,108	1,05	
869,486	-1	
869,865	6,25	
870,243	2,35	
870,621	3	
871	1,9	
871,378	4,3	
871,756	-2,1	
872,134	-0,75	
872,512	1,95	
872,89	-2,45	
873,268	-1,65	
873,646	3,7	
874,023	1,1	
874,401	-1,1	
874,779	1,9	
875,156	1,95	
875,534	5,95	
875,911	-1,5	
876,289	4,95	
876,666	1,25	
877,043	5,65	
877,421	2,45	
877,798	-0,7	
878,175	-1,95	
878,552	8,5	
878,929	4,45	
879,306	2,05	
879,683	3,15	
880,06	1,95	
880,437	6,15	
880,813	6,7	
881,19	7,55	
881,567	8,6	
881,943	5,6	
882,32	7,9	
882,696	12,4	
883,073	10,7	
883,449	5,15	
883,825	6,2	
884,202	15,55	
884,578	12	
884,954	3,2	
885,33	13,15	
885,706	15,15	
886,082	10,75	
886,458	10,65	
886,834	13,3	
887,209	14,4	
887,585	16,35	
887,961	10,45	
888,336	13,8	
888,712	20,85	
889,087	17,95	
889,463	20,9	
889,838	23,6	
890,213	25,45	
890,589	29,2	
890,964	26,6	
891,339	20,95	
891,714	18,75	
892,089	23,4	
892,464	15,75	
892,839	25	
893,214	24,25	
893,589	33,3	
893,963	31,55	
894,338	26,95	
894,713	30,55	
895,087	36,55	
895,462	27,55	
895,836	30,4	
896,211	37,3	
896,585	31,8	
896,959	31,95	
897,334	42,3	
897,708	32,75	
898,082	39,95	
898,456	32,05	
898,83	35,4	
899,204	40,15	
899,578	49,75	
899,952	41,9	
900,325	42,95	
900,699	48,85	
901,073	41,05	
901,446	39	
901,82	40,45	
902,193	39,8	
902,567	41	
902,94	45,25	
903,313	51,6	
903,687	61,15	
904,06	63,3	
904,433	61,75	
904,806	59,4	
905,179	56,7	
905,552	64,75	
905,925	65,75	
906,298	61,2	
906,671	61,55	
907,043	62,65	
907,416	69,1	
907,789	69,2	
908,161	69,4	
908,534	83,6	
908,906	80,25	
909,279	79,2	
909,651	75,1	
910,023	80,85	
910,396	86	
910,768	91,3	
911,14	88,45	
911,512	79,95	
911,884	80,15	
912,256	76,85	
912,628	86,35	
912,999	86,6	
913,371	84,05	
913,743	90,5	
914,115	85,3	
914,486	81,25	
914,858	85,65	
915,229	70,55	
915,601	79,8	
915,972	81,65	
916,343	85,7	
916,715	76,45	
917,086	76,1	
917,457	71,1	
917,828	75,75	
918,199	79	
918,57	84,75	
918,941	62,9	
919,312	71,1	
919,682	79,85	
920,053	79,9	
920,424	79,85	
920,794	73,1	
921,165	73,15	
921,536	75,9	
921,906	74,95	
922,276	79,6	
922,647	85,95	
923,017	81,45	
923,387	80,15	
923,757	81,85	
924,127	75,25	
924,497	66,9	
924,867	69,15	
925,237	68,8	
925,607	71,75	
925,977	68,85	
926,347	68,8	
926,716	64,8	
927,086	65	
927,456	82,45	
927,825	71,85	
928,195	76,5	
928,564	69,45	
928,933	74,3	
929,303	69,85	
929,672	78,8	
930,041	78,15	
930,41	82,75	
930,779	77,1	
931,148	84,35	
931,517	75,6	
931,886	70,6	
932,255	67,4	
932,624	70,3	
932,993	70,1	
933,361	72,2	
933,73	71,2	
934,098	72,3	
934,467	74,4	
934,835	70,5	
935,204	67,15	
935,572	70,6	
935,94	78,3	
936,308	69	
936,677	81,85	
937,045	77,7	
937,413	70,25	
937,781	76,8	
938,149	75,55	
938,516	75	
938,884	82,7	
939,252	73,05	
939,62	67,8	
939,987	78,4	
940,355	73,3	
940,722	65,3	
941,09	62,85	
941,457	63,3	
941,825	62,75	
942,192	56,05	
942,559	62,4	
942,926	62	
943,293	69,95	
943,66	56,6	
944,027	51	
944,394	53,3	
944,761	63,7	
945,128	58,5	
945,495	57,15	
945,861	49	
946,228	48,1	
946,595	45,7	
946,961	48	
947,328	52,35	
947,694	46,6	
948,06	51,4	
948,427	46,5	
948,793	42,75	
949,159	51,75	
949,525	47,35	
949,891	47,15	
950,257	43,65	
950,623	44,9	
950,989	44,1	
951,355	34,95	
951,721	40,2	
952,087	37,7	
952,452	36,05	
952,818	36,5	
953,183	34	
953,549	27,7	
953,914	31,05	
954,28	34,65	
954,645	27,3	
955,01	26,25	
955,375	25,9	
955,741	32,3	
956,106	25,55	
956,471	38,6	
956,836	27,8	
957,201	23,05	
957,566	27,9	
957,93	27,55	
958,295	22,4	
958,66	21,3	
959,024	19	
959,389	26,05	
959,753	27,05	
960,118	23,5	
960,482	21,35	
960,847	25,4	
961,211	24	
961,575	31,55	
961,939	23,45	
962,303	14,3	
962,667	19,95	
963,031	18,65	
963,395	19,65	
963,759	12,1	
964,123	17,6	
964,487	26,55	
964,851	17,1	
965,214	20,45	
965,578	14,75	
965,941	20,15	
966,305	20,45	
966,668	23,45	
967,032	11,8	
967,395	17,35	
967,758	27,4	
968,121	17,1	
968,484	16,05	
968,847	17,6	
969,21	13,75	
969,573	10,2	
969,936	9,2	
970,299	4,65	
970,662	10,35	
971,025	10,9	
971,387	12,4	
971,75	12,25	
972,112	13,7	
972,475	17,75	
972,837	9	
973,2	8,4	
973,562	13,95	
973,924	11,15	
974,286	11,05	
974,649	16,45	
975,011	9,1	
975,373	11,35	
975,735	9,75	
976,097	13,15	
976,458	15,2	
976,82	9,4	
977,182	10,95	
977,544	13,7	
977,905	10,55	
978,267	3,55	
978,628	11,8	
978,99	11,3	
979,351	10,1	
979,712	12,8	
980,074	-3,95	
980,435	8,05	
980,796	15,4	
981,157	7,1	
981,518	-4,45	
981,879	8,2	
982,24	7,25	
982,601	9,9	
982,962	6,7	
983,323	-1,6	
983,683	0,5	
984,044	7,45	
984,404	2,45	
984,765	5,8	
985,125	3,45	
985,486	7,4	
985,846	7,75	
986,206	4,65	
986,567	2,4	
986,927	7,45	
987,287	0,15	
987,647	3,05	
988,007	3,75	
988,367	2,85	
988,727	8,2	
989,087	5,9	
989,446	4,4	
989,806	-1,05	
990,166	4,8	
990,525	3,2	
990,885	1,95	
991,244	2,2	
991,604	-3,55	
991,963	5,85	
992,322	2,75	
992,682	-1,4	
993,041	6,2	
993,4	-5,7	
993,759	0,5	
994,118	5,8	
994,477	2,95	
994,836	1,4	
995,195	-5,7	
995,553	0,25	
995,912	1,75	
996,271	0,8	
996,629	2,6	
996,988	0,65	
997,346	-6,55	
997,705	-2,85	
998,063	10,8	
998,422	-4,85	
998,78	6,15	
999,138	2,25	
999,496	7,25	
999,854	4,8	
1000,212	-0,2	
1000,57	-2,45	
1000,928	5,5	
1001,286	0,2	
1001,644	3,65	
1002,001	10,25	
1002,359	-1,7	
1002,717	6,8	
1003,074	0,65	
1003,432	1,7	
1003,789	3,4	
1004,147	3,9	
1004,504	6,1	
1004,861	-2,85	
1005,218	-2,05	
1005,576	-1,1	
1005,933	-2,75	
1006,29	-5,35	
1006,647	-2	
1007,004	-2,05	
1007,36	-3,15	
1007,717	1,7	
1008,074	-3,7	
1008,431	-3,4	
1008,787	-1,05	
1009,144	-5,25	
1009,5	0,15	
1009,857	0	
1010,213	-5,45	
1010,569	1,3	
1010,926	-0,5	
1011,282	4,9	
1011,638	-7,2	
1011,994	1,25	
1012,35	-1,75	
1012,706	2,3	
1013,062	0,75	
1013,418	9,7	
1013,774	4,95	
1014,13	-3,5	
1014,485	4,15	
1014,841	1,2	
1015,197	-2,85	
1015,552	-1,05	
1015,907	2	
1016,263	3,9	
1016,618	3,6	
1016,974	-3	
1017,329	0,35	
1017,684	-3,3	
1018,039	5,2	
1018,394	-0,05	
1018,749	3,8	
1019,104	-4,1	
1019,459	6,15	
1019,814	1,45	
1020,168	2,3	
1020,523	2,5	
1020,878	4,4	
1021,232	-0,65	
1021,587	-4,5	
1021,941	2,3	
1022,296	3,1	
1022,65	0,85	
1023,004	-5,2	
1023,359	-3,8	
1023,713	-0,2	
1024,067	-1,65	
1024,421	2,85	
1024,775	4,55	
1025,129	4,75	
1025,483	3,7	
1025,837	-2,4	
1026,19	3	
1026,544	-1,85	
1026,898	4,2	
1027,251	3,8	
1027,605	2,75	
1027,958	4,8	
1028,312	0,85	
1028,665	-0,2	
1029,018	3,9	
1029,372	-1,4	
1029,725	-1,85	
1030,078	1,55	
1030,431	-1,3	
1030,784	2	
1031,137	-0,05	
1031,49	2,3	
1031,843	11,4	
1032,195	-0,25	
1032,548	10,8	
1032,901	1,05	
1033,253	8,2	
1033,606	7,15	
1033,958	1,25	
1034,311	2,75	
1034,663	6,65	
1035,016	-3,55	
1035,368	0,05	
1035,72	-4,25	
1036,072	2,4	
1036,424	0,5	
1036,776	1,7	
1037,128	4,4	
1037,48	5,4	
